Timestamp,ECG_CH1,ECG_CH2
2024-12-19 08:54:10,210830,16347
2024-12-19 08:54:10,209806,16358
2024-12-19 08:54:10,208855,16350
2024-12-19 08:54:10,208966,16353
2024-12-19 08:54:10,209575,16340
2024-12-19 08:54:10,210661,16249
2024-12-19 08:54:10,211381,16230
2024-12-19 08:54:10,211250,16271
2024-12-19 08:54:10,210804,16279
2024-12-19 08:54:10,210106,16286
2024-12-19 08:54:10,209255,16347
2024-12-19 08:54:10,208852,16285
2024-12-19 08:54:10,209276,16316
2024-12-19 08:54:10,210393,16306
2024-12-19 08:54:10,210808,16277
2024-12-19 08:54:10,211356,16273
2024-12-19 08:54:10,211234,16227
2024-12-19 08:54:10,210571,16183
2024-12-19 08:54:10,209720,16193
2024-12-19 08:54:10,208907,16213
2024-12-19 08:54:10,208779,16215
2024-12-19 08:54:10,209299,16218
2024-12-19 08:54:10,210605,16224
2024-12-19 08:54:10,211311,16120
2024-12-19 08:54:10,211303,16150
2024-12-19 08:54:10,210871,16121
2024-12-19 08:54:10,210118,16122
2024-12-19 08:54:10,209253,16216
2024-12-19 08:54:10,208887,16246
2024-12-19 08:54:10,209340,16206
2024-12-19 08:54:10,210294,16148
2024-12-19 08:54:10,211148,16087
2024-12-19 08:54:10,211467,16043
2024-12-19 08:54:10,211135,16084
2024-12-19 08:54:10,210764,16080
2024-12-19 08:54:10,209785,16075
2024-12-19 08:54:10,208988,16170
2024-12-19 08:54:10,208927,16136
2024-12-19 08:54:10,209368,16134
2024-12-19 08:54:10,210485,16091
2024-12-19 08:54:10,211358,16061
2024-12-19 08:54:10,211478,16013
2024-12-19 08:54:10,211069,15975
2024-12-19 08:54:10,210233,16018
2024-12-19 08:54:10,209458,16075
2024-12-19 08:54:10,208805,16099
2024-12-19 08:54:10,208997,16057
2024-12-19 08:54:10,209971,16051
2024-12-19 08:54:10,210910,16041
2024-12-19 08:54:10,211441,16010
2024-12-19 08:54:10,211298,16006
2024-12-19 08:54:10,210532,16011
2024-12-19 08:54:10,209665,15984
2024-12-19 08:54:10,208838,16044
2024-12-19 08:54:10,208704,16032
2024-12-19 08:54:10,209193,16124
2024-12-19 08:54:10,210339,16090
2024-12-19 08:54:10,211116,15976
2024-12-19 08:54:10,211397,15954
2024-12-19 08:54:10,211166,15984
2024-12-19 08:54:10,210343,15952
2024-12-19 08:54:10,209401,16003
2024-12-19 08:54:10,208684,15989
2024-12-19 08:54:10,208841,16057
2024-12-19 08:54:10,209579,15974
2024-12-19 08:54:10,210706,15978
2024-12-19 08:54:10,211222,15974
2024-12-19 08:54:10,210951,15931
2024-12-19 08:54:10,210478,15965
2024-12-19 08:54:10,209539,16023
2024-12-19 08:54:10,208618,15967
2024-12-19 08:54:10,208675,16005
2024-12-19 08:54:10,209439,16049
2024-12-19 08:54:10,210689,16027
2024-12-19 08:54:10,210953,16025
2024-12-19 08:54:10,211479,15952
2024-12-19 08:54:10,211204,15922
2024-12-19 08:54:10,210449,15899
2024-12-19 08:54:10,209629,15949
2024-12-19 08:54:10,208752,15916
2024-12-19 08:54:10,208797,15988
2024-12-19 08:54:10,209790,16046
2024-12-19 08:54:10,210857,15967
2024-12-19 08:54:10,211526,15920
2024-12-19 08:54:10,211408,15893
2024-12-19 08:54:10,210994,15948
2024-12-19 08:54:10,210199,15996
2024-12-19 08:54:10,209290,15966
2024-12-19 08:54:10,209000,15967
2024-12-19 08:54:10,209348,15971
2024-12-19 08:54:10,210631,16024
2024-12-19 08:54:10,211348,15951
2024-12-19 08:54:10,211453,15939
2024-12-19 08:54:10,211032,15889
2024-12-19 08:54:10,210623,15902
2024-12-19 08:54:10,209698,15901
2024-12-19 08:54:10,209016,15926
2024-12-19 08:54:10,208978,15910
2024-12-19 08:54:10,209664,15905
2024-12-19 08:54:10,210867,15935
2024-12-19 08:54:10,211504,15916
2024-12-19 08:54:10,211339,15862
2024-12-19 08:54:10,210695,15860
2024-12-19 08:54:10,209881,15898
2024-12-19 08:54:10,208986,15989
2024-12-19 08:54:10,208534,15973
2024-12-19 08:54:10,209038,16011
2024-12-19 08:54:10,210044,15951
2024-12-19 08:54:10,210591,15853
2024-12-19 08:54:10,210704,15746
2024-12-19 08:54:10,210310,15801
2024-12-19 08:54:10,209419,15820
2024-12-19 08:54:10,208767,15897
2024-12-19 08:54:10,208209,16035
2024-12-19 08:54:10,208342,16103
2024-12-19 08:54:10,209014,16096
2024-12-19 08:54:10,210218,16138
2024-12-19 08:54:10,210781,16038
2024-12-19 08:54:10,210856,16029
2024-12-19 08:54:10,210458,16063
2024-12-19 08:54:10,209584,16011
2024-12-19 08:54:10,208924,16069
2024-12-19 08:54:10,208313,16041
2024-12-19 08:54:10,208797,15966
2024-12-19 08:54:10,210109,15936
2024-12-19 08:54:10,211483,15978
2024-12-19 08:54:10,211916,15857
2024-12-19 08:54:10,211602,15900
2024-12-19 08:54:10,210825,15894
2024-12-19 08:54:10,209797,15823
2024-12-19 08:54:10,209005,15835
2024-12-19 08:54:10,209073,15876
2024-12-19 08:54:10,209951,15881
2024-12-19 08:54:10,211249,15904
2024-12-19 08:54:10,211814,15921
2024-12-19 08:54:10,211907,15874
2024-12-19 08:54:10,211418,15829
2024-12-19 08:54:10,210583,15880
2024-12-19 08:54:10,209764,15841
2024-12-19 08:54:10,209280,15948
2024-12-19 08:54:10,209513,15970
2024-12-19 08:54:10,210274,15911
2024-12-19 08:54:10,211202,15838
2024-12-19 08:54:10,211807,15829
2024-12-19 08:54:10,211451,15774
2024-12-19 08:54:10,210651,15756
2024-12-19 08:54:10,209829,15803
2024-12-19 08:54:10,209095,15817
2024-12-19 08:54:10,209174,15844
2024-12-19 08:54:10,209623,15784
2024-12-19 08:54:10,210818,15762
2024-12-19 08:54:10,211584,15799
2024-12-19 08:54:10,211644,15716
2024-12-19 08:54:10,211064,15794
2024-12-19 08:54:10,210598,15767
2024-12-19 08:54:10,209676,15785
2024-12-19 08:54:10,208964,15844
2024-12-19 08:54:10,209100,15850
2024-12-19 08:54:10,210176,15796
2024-12-19 08:54:10,211081,15821
2024-12-19 08:54:10,211651,15738
2024-12-19 08:54:10,211406,15784
2024-12-19 08:54:10,210887,15764
2024-12-19 08:54:10,210007,15779
2024-12-19 08:54:10,209146,15760
2024-12-19 08:54:10,209087,15836
2024-12-19 08:54:10,209596,15853
2024-12-19 08:54:10,210814,15763
2024-12-19 08:54:10,211625,15776
2024-12-19 08:54:10,211661,15724
2024-12-19 08:54:10,211256,15763
2024-12-19 08:54:10,210378,15781
2024-12-19 08:54:10,209333,15751
2024-12-19 08:54:10,209099,15826
2024-12-19 08:54:10,209302,15908
2024-12-19 08:54:10,210467,15978
2024-12-19 08:54:10,212454,16197
2024-12-19 08:54:10,214241,16412
2024-12-19 08:54:10,215008,16579
2024-12-19 08:54:10,215174,16968
2024-12-19 08:54:10,215933,17466
2024-12-19 08:54:10,216185,17983
2024-12-19 08:54:10,215989,18409
2024-12-19 08:54:10,217111,18698
2024-12-19 08:54:10,217576,19153
2024-12-19 08:54:10,216081,18608
2024-12-19 08:54:10,212092,17149
2024-12-19 08:54:10,206724,15246
2024-12-19 08:54:10,202906,13971
2024-12-19 08:54:10,200653,13042
2024-12-19 08:54:10,197879,11750
2024-12-19 08:54:10,193323,10926
2024-12-19 08:54:10,192179,10268
2024-12-19 08:54:10,194768,9996
2024-12-19 08:54:10,195604,9737
2024-12-19 08:54:10,195366,9264
2024-12-19 08:54:10,195769,9079
2024-12-19 08:54:10,196621,9121
2024-12-19 08:54:10,198965,9538
2024-12-19 08:54:10,201173,9838
2024-12-19 08:54:10,203753,10383
2024-12-19 08:54:10,206635,11061
2024-12-19 08:54:10,208796,11788
2024-12-19 08:54:10,210100,12499
2024-12-19 08:54:10,210185,13214
2024-12-19 08:54:10,209920,13839
2024-12-19 08:54:10,209871,14449
2024-12-19 08:54:10,209321,14863
2024-12-19 08:54:10,209311,15121
2024-12-19 08:54:10,210271,15299
2024-12-19 08:54:10,211073,15450
2024-12-19 08:54:10,211708,15463
2024-12-19 08:54:10,211703,15594
2024-12-19 08:54:10,211238,15714
2024-12-19 08:54:10,210863,15763
2024-12-19 08:54:10,210006,15766
2024-12-19 08:54:10,209608,15863
2024-12-19 08:54:10,210073,15939
2024-12-19 08:54:10,211137,15900
2024-12-19 08:54:10,212352,15934
2024-12-19 08:54:10,212787,15991
2024-12-19 08:54:10,212393,15962
2024-12-19 08:54:10,211676,16000
2024-12-19 08:54:10,210871,16102
2024-12-19 08:54:10,210187,16170
2024-12-19 08:54:10,210388,16135
2024-12-19 08:54:10,211163,16154
2024-12-19 08:54:10,212211,16214
2024-12-19 08:54:10,212941,16170
2024-12-19 08:54:10,212847,16217
2024-12-19 08:54:10,212329,16206
2024-12-19 08:54:10,211453,16316
2024-12-19 08:54:10,210538,16298
2024-12-19 08:54:10,210326,16280
2024-12-19 08:54:10,210594,16327
2024-12-19 08:54:10,211602,16321
2024-12-19 08:54:10,212606,16296
2024-12-19 08:54:10,213089,16241
2024-12-19 08:54:10,212745,16216
2024-12-19 08:54:10,212013,16273
2024-12-19 08:54:10,211201,16321
2024-12-19 08:54:10,210441,16394
2024-12-19 08:54:10,210519,16413
2024-12-19 08:54:10,211378,16427
2024-12-19 08:54:10,212548,16435
2024-12-19 08:54:10,213235,16418
2024-12-19 08:54:10,213263,16381
2024-12-19 08:54:10,212735,16454
2024-12-19 08:54:10,211914,16456
2024-12-19 08:54:10,211099,16539
2024-12-19 08:54:10,210681,16553
2024-12-19 08:54:10,211029,16559
2024-12-19 08:54:10,212308,16553
2024-12-19 08:54:10,213208,16559
2024-12-19 08:54:10,213499,16554
2024-12-19 08:54:10,213484,16564
2024-12-19 08:54:10,213056,16656
2024-12-19 08:54:10,212258,16644
2024-12-19 08:54:10,211330,16654
2024-12-19 08:54:10,211342,16751
2024-12-19 08:54:10,212177,16823
2024-12-19 08:54:10,213373,16879
2024-12-19 08:54:10,214433,16841
2024-12-19 08:54:10,214393,16815
2024-12-19 08:54:10,214160,16855
2024-12-19 08:54:10,213275,16879
2024-12-19 08:54:10,212594,16967
2024-12-19 08:54:10,212333,16981
2024-12-19 08:54:10,212757,17003
2024-12-19 08:54:10,213901,16955
2024-12-19 08:54:10,214916,16974
2024-12-19 08:54:10,215499,16996
2024-12-19 08:54:10,215162,16995
2024-12-19 08:54:10,214683,17088
2024-12-19 08:54:10,214351,17071
2024-12-19 08:54:10,213531,17190
2024-12-19 08:54:10,213428,17264
2024-12-19 08:54:10,214103,17348
2024-12-19 08:54:10,215424,17318
2024-12-19 08:54:10,216314,17354
2024-12-19 08:54:10,216562,17378
2024-12-19 08:54:10,216385,17346
2024-12-19 08:54:10,215518,17371
2024-12-19 08:54:10,214886,17416
2024-12-19 08:54:10,214536,17455
2024-12-19 08:54:10,214739,17493
2024-12-19 08:54:10,215837,17457
2024-12-19 08:54:10,216788,17444
2024-12-19 08:54:10,217167,17373
2024-12-19 08:54:10,217028,17349
2024-12-19 08:54:10,216417,17382
2024-12-19 08:54:10,215568,17382
2024-12-19 08:54:10,214584,17378
2024-12-19 08:54:10,214624,17407
2024-12-19 08:54:10,215020,17442
2024-12-19 08:54:10,216202,17388
2024-12-19 08:54:10,217063,17323
2024-12-19 08:54:10,217430,17320
2024-12-19 08:54:10,217162,17339
2024-12-19 08:54:10,216359,17362
2024-12-19 08:54:10,215331,17351
2024-12-19 08:54:10,214529,17384
2024-12-19 08:54:10,214568,17323
2024-12-19 08:54:10,215359,17304
2024-12-19 08:54:10,216202,17262
2024-12-19 08:54:10,216566,17165
2024-12-19 08:54:10,216174,17126
2024-12-19 08:54:10,215339,17056
2024-12-19 08:54:10,214378,17054
2024-12-19 08:54:10,213204,17018
2024-12-19 08:54:10,212841,16926
2024-12-19 08:54:10,213234,16854
2024-12-19 08:54:10,214306,16790
2024-12-19 08:54:10,214794,16705
2024-12-19 08:54:10,214588,16662
2024-12-19 08:54:10,214122,16631
2024-12-19 08:54:10,213226,16611
2024-12-19 08:54:10,212333,16659
2024-12-19 08:54:10,211489,16652
2024-12-19 08:54:10,211198,16564
2024-12-19 08:54:10,211773,16432
2024-12-19 08:54:10,212387,16362
2024-12-19 08:54:10,212993,16244
2024-12-19 08:54:10,212881,16240
2024-12-19 08:54:10,212268,16254
2024-12-19 08:54:10,211394,16197
2024-12-19 08:54:10,210398,16210
2024-12-19 08:54:10,209888,16122
2024-12-19 08:54:11,210204,16105
2024-12-19 08:54:11,211183,16018
2024-12-19 08:54:11,211922,15986
2024-12-19 08:54:11,211942,15973
2024-12-19 08:54:11,211563,16009
2024-12-19 08:54:11,210771,16004
2024-12-19 08:54:11,210375,16046
2024-12-19 08:54:11,209666,16038
2024-12-19 08:54:11,209473,16002
2024-12-19 08:54:11,210214,16090
2024-12-19 08:54:11,211138,16066
2024-12-19 08:54:11,211897,15995
2024-12-19 08:54:11,211941,15949
2024-12-19 08:54:11,211208,15968
2024-12-19 08:54:11,210449,16017
2024-12-19 08:54:11,209473,16047
2024-12-19 08:54:11,209073,16000
2024-12-19 08:54:11,209477,15997
2024-12-19 08:54:11,210656,15902
2024-12-19 08:54:11,211442,15826
2024-12-19 08:54:11,211747,15907
2024-12-19 08:54:11,211418,15905
2024-12-19 08:54:11,210631,15926
2024-12-19 08:54:11,209782,15856
2024-12-19 08:54:11,208981,15899
2024-12-19 08:54:11,209014,15903
2024-12-19 08:54:11,209766,15934
2024-12-19 08:54:11,211040,15924
2024-12-19 08:54:11,211776,15931
2024-12-19 08:54:11,211919,15923
2024-12-19 08:54:11,211528,15927
2024-12-19 08:54:11,210464,15896
2024-12-19 08:54:11,209655,15959
2024-12-19 08:54:11,208993,15929
2024-12-19 08:54:11,209432,15949
2024-12-19 08:54:11,210485,15993
2024-12-19 08:54:11,211424,15976
2024-12-19 08:54:11,211791,15944
2024-12-19 08:54:11,211444,15889
2024-12-19 08:54:11,210579,15906
2024-12-19 08:54:11,209975,16023
2024-12-19 08:54:11,209128,15960
2024-12-19 08:54:11,209366,16021
2024-12-19 08:54:11,210461,16001
2024-12-19 08:54:11,211197,16008
2024-12-19 08:54:11,211648,16070
2024-12-19 08:54:11,211896,16022
2024-12-19 08:54:11,211565,16074
2024-12-19 08:54:11,210748,16137
2024-12-19 08:54:11,210116,16172
2024-12-19 08:54:11,209369,16214
2024-12-19 08:54:11,209379,16273
2024-12-19 08:54:11,210320,16148
2024-12-19 08:54:11,211266,16091
2024-12-19 08:54:11,211929,16043
2024-12-19 08:54:11,211669,16034
2024-12-19 08:54:11,211038,16039
2024-12-19 08:54:11,210158,16079
2024-12-19 08:54:11,209377,16064
2024-12-19 08:54:11,209458,16091
2024-12-19 08:54:11,210151,16066
2024-12-19 08:54:11,211202,16053
2024-12-19 08:54:11,211740,16006
2024-12-19 08:54:11,211769,15979
2024-12-19 08:54:11,211119,15958
2024-12-19 08:54:11,210785,15981
2024-12-19 08:54:11,210048,16009
2024-12-19 08:54:11,209319,16055
2024-12-19 08:54:11,209356,16041
2024-12-19 08:54:11,210178,16017
2024-12-19 08:54:11,210987,15936
2024-12-19 08:54:11,211814,15910
2024-12-19 08:54:11,211638,15906
2024-12-19 08:54:11,211130,15956
2024-12-19 08:54:11,210330,15961
2024-12-19 08:54:11,209586,16018
2024-12-19 08:54:11,209586,16073
2024-12-19 08:54:11,210016,16004
2024-12-19 08:54:11,211016,15921
2024-12-19 08:54:11,211500,15881
2024-12-19 08:54:11,211708,15938
2024-12-19 08:54:11,211397,15950
2024-12-19 08:54:11,210441,15943
2024-12-19 08:54:11,209547,16005
2024-12-19 08:54:11,209392,16036
2024-12-19 08:54:11,209400,16026
2024-12-19 08:54:11,209911,15992
2024-12-19 08:54:11,210994,15978
2024-12-19 08:54:11,211414,15879
2024-12-19 08:54:11,211541,15885
2024-12-19 08:54:11,211018,15866
2024-12-19 08:54:11,210297,15886
2024-12-19 08:54:11,209307,15859
2024-12-19 08:54:11,208936,15945
2024-12-19 08:54:11,209474,15936
2024-12-19 08:54:11,210408,15896
2024-12-19 08:54:11,211199,15885
2024-12-19 08:54:11,211493,15901
2024-12-19 08:54:11,211082,15866
2024-12-19 08:54:11,210364,15819
2024-12-19 08:54:11,209494,15881
2024-12-19 08:54:11,208671,15901
2024-12-19 08:54:11,208958,15896
2024-12-19 08:54:11,209889,15853
2024-12-19 08:54:11,210948,15859
2024-12-19 08:54:11,211244,15876
2024-12-19 08:54:11,211127,15883
2024-12-19 08:54:11,210858,15858
2024-12-19 08:54:11,210090,15853
2024-12-19 08:54:11,209172,15863
2024-12-19 08:54:11,208860,15896
2024-12-19 08:54:11,209165,15922
2024-12-19 08:54:11,210302,15883
2024-12-19 08:54:11,211281,15931
2024-12-19 08:54:11,211648,15819
2024-12-19 08:54:11,211384,15839
2024-12-19 08:54:11,210557,15827
2024-12-19 08:54:11,209743,15900
2024-12-19 08:54:11,208941,15903
2024-12-19 08:54:11,209017,15886
2024-12-19 08:54:11,209865,15875
2024-12-19 08:54:11,210789,15879
2024-12-19 08:54:11,211227,15799
2024-12-19 08:54:11,211031,15775
2024-12-19 08:54:11,210466,15803
2024-12-19 08:54:11,210129,15824
2024-12-19 08:54:11,209396,15859
2024-12-19 08:54:11,208820,15843
2024-12-19 08:54:11,209051,15894
2024-12-19 08:54:11,210211,15919
2024-12-19 08:54:11,211139,15921
2024-12-19 08:54:11,211617,15852
2024-12-19 08:54:11,211334,15863
2024-12-19 08:54:11,210566,15856
2024-12-19 08:54:11,209804,15841
2024-12-19 08:54:11,208780,15829
2024-12-19 08:54:11,208889,15899
2024-12-19 08:54:11,209769,15913
2024-12-19 08:54:11,210938,15916
2024-12-19 08:54:11,211652,15932
2024-12-19 08:54:11,211396,15923
2024-12-19 08:54:11,210848,15829
2024-12-19 08:54:11,209976,15851
2024-12-19 08:54:11,208986,15839
2024-12-19 08:54:11,208783,15853
2024-12-19 08:54:11,209128,15874
2024-12-19 08:54:11,210141,15885
2024-12-19 08:54:11,211294,15964
2024-12-19 08:54:11,211621,15857
2024-12-19 08:54:11,211401,15808
2024-12-19 08:54:11,210564,15798
2024-12-19 08:54:11,209762,15785
2024-12-19 08:54:11,208716,15714
2024-12-19 08:54:11,208899,15714
2024-12-19 08:54:11,209602,15734
2024-12-19 08:54:11,210734,15689
2024-12-19 08:54:11,211327,15668
2024-12-19 08:54:11,211296,15679
2024-12-19 08:54:11,210942,15683
2024-12-19 08:54:11,209930,15664
2024-12-19 08:54:11,209101,15730
2024-12-19 08:54:11,208755,15794
2024-12-19 08:54:11,209346,15754
2024-12-19 08:54:11,210386,15741
2024-12-19 08:54:11,211019,15725
2024-12-19 08:54:11,211238,15698
2024-12-19 08:54:11,211192,15697
2024-12-19 08:54:11,210509,15683
2024-12-19 08:54:11,209623,15739
2024-12-19 08:54:11,208616,15733
2024-12-19 08:54:11,208393,15774
2024-12-19 08:54:11,208675,15754
2024-12-19 08:54:11,209581,15641
2024-12-19 08:54:11,210609,15684
2024-12-19 08:54:11,210779,15632
2024-12-19 08:54:11,210174,15681
2024-12-19 08:54:11,209290,15718
2024-12-19 08:54:11,208836,15852
2024-12-19 08:54:11,208496,15927
2024-12-19 08:54:11,208863,15879
2024-12-19 08:54:11,209724,15818
2024-12-19 08:54:11,210506,15768
2024-12-19 08:54:11,210663,15733
2024-12-19 08:54:11,210405,15738
2024-12-19 08:54:11,209871,15754
2024-12-19 08:54:11,209391,15785
2024-12-19 08:54:11,208699,15766
2024-12-19 08:54:11,208490,15767
2024-12-19 08:54:11,209494,15800
2024-12-19 08:54:11,210591,15815
2024-12-19 08:54:11,211693,15763
2024-12-19 08:54:11,212174,15812
2024-12-19 08:54:11,211703,15822
2024-12-19 08:54:11,210823,15756
2024-12-19 08:54:11,210016,15706
2024-12-19 08:54:11,209414,15802
2024-12-19 08:54:11,209802,15841
2024-12-19 08:54:11,210566,15734
2024-12-19 08:54:11,211394,15698
2024-12-19 08:54:11,211554,15652
2024-12-19 08:54:11,211203,15619
2024-12-19 08:54:11,210631,15633
2024-12-19 08:54:11,210091,15666
2024-12-19 08:54:11,209291,15640
2024-12-19 08:54:11,209246,15750
2024-12-19 08:54:11,209354,15702
2024-12-19 08:54:11,210392,15697
2024-12-19 08:54:11,211273,15608
2024-12-19 08:54:11,211319,15537
2024-12-19 08:54:11,211083,15521
2024-12-19 08:54:11,210453,15504
2024-12-19 08:54:11,209593,15497
2024-12-19 08:54:11,208904,15636
2024-12-19 08:54:11,209198,15679
2024-12-19 08:54:11,210159,15684
2024-12-19 08:54:11,211211,15728
2024-12-19 08:54:11,211721,15684
2024-12-19 08:54:11,211626,15599
2024-12-19 08:54:11,210981,15633
2024-12-19 08:54:11,210303,15663
2024-12-19 08:54:11,209411,15682
2024-12-19 08:54:11,209211,15666
2024-12-19 08:54:11,209859,15703
2024-12-19 08:54:11,210951,15627
2024-12-19 08:54:11,211689,15607
2024-12-19 08:54:11,211681,15548
2024-12-19 08:54:11,211405,15611
2024-12-19 08:54:11,210659,15539
2024-12-19 08:54:11,209848,15585
2024-12-19 08:54:11,209178,15680
2024-12-19 08:54:11,209190,15683
2024-12-19 08:54:11,210009,15658
2024-12-19 08:54:11,211123,15669
2024-12-19 08:54:11,211665,15644
2024-12-19 08:54:11,211539,15613
2024-12-19 08:54:11,210978,15604
2024-12-19 08:54:11,210046,15624
2024-12-19 08:54:11,209606,15761
2024-12-19 08:54:11,209897,15841
2024-12-19 08:54:11,210905,15945
2024-12-19 08:54:11,212856,16194
2024-12-19 08:54:11,214102,16383
2024-12-19 08:54:11,214803,16623
2024-12-19 08:54:11,215831,17133
2024-12-19 08:54:11,216236,17664
2024-12-19 08:54:11,215975,17885
2024-12-19 08:54:11,215009,18308
2024-12-19 08:54:11,215203,18563
2024-12-19 08:54:11,214903,18908
2024-12-19 08:54:11,213575,18071
2024-12-19 08:54:11,210598,16354
2024-12-19 08:54:11,206035,14428
2024-12-19 08:54:11,203470,13271
2024-12-19 08:54:11,201336,12122
2024-12-19 08:54:11,198114,10909
2024-12-19 08:54:11,193699,9954
2024-12-19 08:54:11,193157,9407
2024-12-19 08:54:11,196032,9288
2024-12-19 08:54:11,196809,8806
2024-12-19 08:54:11,197429,8591
2024-12-19 08:54:11,198805,8649
2024-12-19 08:54:11,200768,9071
2024-12-19 08:54:11,202909,9540
2024-12-19 08:54:11,204079,10022
2024-12-19 08:54:11,205890,10719
2024-12-19 08:54:11,207101,11154
2024-12-19 08:54:11,209213,11813
2024-12-19 08:54:11,210646,12487
2024-12-19 08:54:11,211197,13171
2024-12-19 08:54:11,211411,13811
2024-12-19 08:54:11,211341,14451
2024-12-19 08:54:11,210234,14781
2024-12-19 08:54:11,209628,15019
2024-12-19 08:54:11,209939,15252
2024-12-19 08:54:11,210827,15409
2024-12-19 08:54:11,211718,15560
2024-12-19 08:54:11,212366,15706
2024-12-19 08:54:11,212263,15746
2024-12-19 08:54:11,211473,15754
2024-12-19 08:54:11,210560,15745
2024-12-19 08:54:11,209867,15824
2024-12-19 08:54:11,210071,15899
2024-12-19 08:54:11,210900,15950
2024-12-19 08:54:11,211886,15886
2024-12-19 08:54:11,212630,15943
2024-12-19 08:54:11,212730,15938
2024-12-19 08:54:11,212423,15973
2024-12-19 08:54:11,211853,16028
2024-12-19 08:54:11,210916,16017
2024-12-19 08:54:11,210021,15949
2024-12-19 08:54:11,210326,16094
2024-12-19 08:54:11,211252,16110
2024-12-19 08:54:11,212248,16081
2024-12-19 08:54:11,212786,16108
2024-12-19 08:54:11,212761,16223
2024-12-19 08:54:11,212234,16185
2024-12-19 08:54:11,211519,16229
2024-12-19 08:54:11,210412,16257
2024-12-19 08:54:11,210561,16309
2024-12-19 08:54:11,211219,16258
2024-12-19 08:54:11,212474,16226
2024-12-19 08:54:11,213102,16195
2024-12-19 08:54:11,213159,16240
2024-12-19 08:54:11,212613,16178
2024-12-19 08:54:11,211821,16205
2024-12-19 08:54:11,211457,16281
2024-12-19 08:54:11,210813,16338
2024-12-19 08:54:11,210904,16372
2024-12-19 08:54:11,211761,16400
2024-12-19 08:54:11,212583,16374
2024-12-19 08:54:11,213287,16374
2024-12-19 08:54:11,213323,16376
2024-12-19 08:54:11,212962,16439
2024-12-19 08:54:11,212098,16444
2024-12-19 08:54:11,211245,16512
2024-12-19 08:54:11,211333,16581
2024-12-19 08:54:11,211950,16599
2024-12-19 08:54:11,212881,16584
2024-12-19 08:54:11,213629,16577
2024-12-19 08:54:11,213778,16591
2024-12-19 08:54:11,213385,16546
2024-12-19 08:54:11,212589,16563
2024-12-19 08:54:11,211996,16696
2024-12-19 08:54:11,211556,16766
2024-12-19 08:54:11,211968,16749
2024-12-19 08:54:11,212450,16759
2024-12-19 08:54:11,213674,16736
2024-12-19 08:54:11,214379,16759
2024-12-19 08:54:11,214442,16797
2024-12-19 08:54:11,214043,16780
2024-12-19 08:54:11,213549,16887
2024-12-19 08:54:11,212752,16912
2024-12-19 08:54:11,212497,16941
2024-12-19 08:54:11,213065,17013
2024-12-19 08:54:11,214119,16979
2024-12-19 08:54:11,214904,17013
2024-12-19 08:54:11,215301,17019
2024-12-19 08:54:11,215179,17072
2024-12-19 08:54:11,214536,17106
2024-12-19 08:54:11,213792,17159
2024-12-19 08:54:11,213450,17178
2024-12-19 08:54:11,213595,17157
2024-12-19 08:54:11,214654,17154
2024-12-19 08:54:11,215640,17272
2024-12-19 08:54:11,216315,17294
2024-12-19 08:54:11,216219,17298
2024-12-19 08:54:11,215907,17268
2024-12-19 08:54:11,215279,17278
2024-12-19 08:54:11,214558,17342
2024-12-19 08:54:11,214386,17369
2024-12-19 08:54:11,214735,17404
2024-12-19 08:54:11,215612,17358
2024-12-19 08:54:11,216756,17415
2024-12-19 08:54:11,217121,17381
2024-12-19 08:54:11,217021,17479
2024-12-19 08:54:11,216238,17471
2024-12-19 08:54:11,215405,17528
2024-12-19 08:54:11,214779,17483
2024-12-19 08:54:11,215000,17549
2024-12-19 08:54:11,215701,17510
2024-12-19 08:54:11,216633,17471
2024-12-19 08:54:11,217236,17423
2024-12-19 08:54:11,217039,17434
2024-12-19 08:54:11,216471,17441
2024-12-19 08:54:11,215653,17379
2024-12-19 08:54:11,215005,17361
2024-12-19 08:54:11,214312,17377
2024-12-19 08:54:11,214761,17401
2024-12-19 08:54:11,215647,17331
2024-12-19 08:54:11,216321,17191
2024-12-19 08:54:11,216560,17104
2024-12-19 08:54:11,215970,16986
2024-12-19 08:54:11,215163,16990
2024-12-19 08:54:11,214078,16968
2024-12-19 08:54:11,212940,16891
2024-12-19 08:54:11,212809,16801
2024-12-19 08:54:11,213468,16806
2024-12-19 08:54:11,214395,16698
2024-12-19 08:54:11,214961,16686
2024-12-19 08:54:11,214599,16598
2024-12-19 08:54:11,213886,16503
2024-12-19 08:54:11,212896,16539
2024-12-19 08:54:11,211792,16522
2024-12-19 08:54:11,211457,16481
2024-12-19 08:54:11,211855,16366
2024-12-19 08:54:11,212312,16309
2024-12-19 08:54:11,213164,16293
2024-12-19 08:54:11,213753,16280
2024-12-19 08:54:11,213445,16147
2024-12-19 08:54:11,212821,16220
2024-12-19 08:54:11,211856,16154
2024-12-19 08:54:11,210954,16234
2024-12-19 08:54:11,210912,16214
2024-12-19 08:54:11,211302,16212
2024-12-19 08:54:11,212299,16139
2024-12-19 08:54:11,213123,16087
2024-12-19 08:54:11,213090,16114
2024-12-19 08:54:11,212439,16014
2024-12-19 08:54:11,211694,16013
2024-12-19 08:54:11,210799,16029
2024-12-19 08:54:11,210597,16155
2024-12-19 08:54:11,210963,16146
2024-12-19 08:54:11,212060,16123
2024-12-19 08:54:11,212893,16113
2024-12-19 08:54:11,213170,16031
2024-12-19 08:54:11,213162,16085
2024-12-19 08:54:11,212602,16045
2024-12-19 08:54:11,211916,16041
2024-12-19 08:54:11,210894,16094
2024-12-19 08:54:11,210737,16111
2024-12-19 08:54:11,211190,16091
2024-12-19 08:54:11,212294,16008
2024-12-19 08:54:11,212930,15923
2024-12-19 08:54:11,212967,15886
2024-12-19 08:54:11,212551,15941
2024-12-19 08:54:11,211742,15882
2024-12-19 08:54:11,210969,15904
2024-12-19 08:54:11,210318,15931
2024-12-19 08:54:11,210911,15953
2024-12-19 08:54:11,211903,15922
2024-12-19 08:54:11,212654,15891
2024-12-19 08:54:11,213184,15901
2024-12-19 08:54:11,212819,15871
2024-12-19 08:54:11,211928,15936
2024-12-19 08:54:11,211310,15913
2024-12-19 08:54:11,210710,15903
2024-12-19 08:54:11,210109,15819
2024-12-19 08:54:11,210651,15819
2024-12-19 08:54:11,211805,15833
2024-12-19 08:54:11,212597,15824
2024-12-19 08:54:11,212806,15817
2024-12-19 08:54:11,212460,15823
2024-12-19 08:54:11,212008,15844
2024-12-19 08:54:11,211189,15933
2024-12-19 08:54:11,210478,15886
2024-12-19 08:54:11,210613,15888
2024-12-19 08:54:11,211386,15802
2024-12-19 08:54:11,212351,15818
2024-12-19 08:54:11,212695,15807
2024-12-19 08:54:11,212421,15763
2024-12-19 08:54:11,211621,15719
2024-12-19 08:54:11,210717,15763
2024-12-19 08:54:11,209914,15758
2024-12-19 08:54:11,209838,15786
2024-12-19 08:54:11,210091,15733
2024-12-19 08:54:11,211273,15746
2024-12-19 08:54:11,212082,15676
2024-12-19 08:54:11,212355,15647
2024-12-19 08:54:11,212212,15641
2024-12-19 08:54:11,211560,15676
2024-12-19 08:54:11,210784,15709
2024-12-19 08:54:11,209941,15678
2024-12-19 08:54:11,210192,15727
2024-12-19 08:54:11,211019,15681
2024-12-19 08:54:11,212003,15621
2024-12-19 08:54:11,212428,15586
2024-12-19 08:54:11,212351,15533
2024-12-19 08:54:11,211598,15531
2024-12-19 08:54:11,210810,15519
2024-12-19 08:54:11,210033,15606
2024-12-19 08:54:11,210053,15707
2024-12-19 08:54:11,210498,15635
2024-12-19 08:54:11,211766,15613
2024-12-19 08:54:11,212573,15616
2024-12-19 08:54:11,212677,15571
2024-12-19 08:54:11,212431,15581
2024-12-19 08:54:11,211734,15581
2024-12-19 08:54:11,211039,15595
2024-12-19 08:54:11,210175,15582
2024-12-19 08:54:11,210319,15596
2024-12-19 08:54:11,211132,15567
2024-12-19 08:54:11,212218,15556
2024-12-19 08:54:11,212827,15494
2024-12-19 08:54:11,212790,15510
2024-12-19 08:54:11,212188,15449
2024-12-19 08:54:11,211231,15434
2024-12-19 08:54:11,210266,15453
2024-12-19 08:54:11,210056,15470
2024-12-19 08:54:11,210764,15526
2024-12-19 08:54:11,211994,15524
2024-12-19 08:54:11,212833,15506
2024-12-19 08:54:11,212956,15436
2024-12-19 08:54:11,212686,15422
2024-12-19 08:54:11,211874,15472
2024-12-19 08:54:11,211294,15418
2024-12-19 08:54:11,210354,15416
2024-12-19 08:54:11,210317,15420
2024-12-19 08:54:11,210859,15408
2024-12-19 08:54:11,211983,15316
2024-12-19 08:54:11,212679,15281
2024-12-19 08:54:11,212889,15299
2024-12-19 08:54:11,212523,15319
2024-12-19 08:54:11,211689,15299
2024-12-19 08:54:11,210789,15291
2024-12-19 08:54:11,210446,15342
2024-12-19 08:54:11,210941,15358
2024-12-19 08:54:11,212033,15367
2024-12-19 08:54:11,212831,15295
2024-12-19 08:54:11,212961,15239
2024-12-19 08:54:11,212641,15251
2024-12-19 08:54:11,212036,15249
2024-12-19 08:54:11,211123,15248
2024-12-19 08:54:11,210464,15283
2024-12-19 08:54:11,210659,15281
2024-12-19 08:54:11,211002,15313
2024-12-19 08:54:11,212337,15371
2024-12-19 08:54:11,213004,15297
2024-12-19 08:54:11,213193,15268
2024-12-19 08:54:11,212803,15176
2024-12-19 08:54:11,211796,15204
2024-12-19 08:54:11,211118,15227
2024-12-19 08:54:11,210422,15288
2024-12-19 08:54:12,210763,15248
2024-12-19 08:54:12,211889,15267
2024-12-19 08:54:12,212712,15194
2024-12-19 08:54:12,213151,15259
2024-12-19 08:54:12,212995,15248
2024-12-19 08:54:12,212238,15274
2024-12-19 08:54:12,211304,15252
2024-12-19 08:54:12,210418,15229
2024-12-19 08:54:12,210709,15281
2024-12-19 08:54:12,211583,15262
2024-12-19 08:54:12,212447,15224
2024-12-19 08:54:12,213193,15223
2024-12-19 08:54:12,213255,15228
2024-12-19 08:54:12,212934,15201
2024-12-19 08:54:12,211992,15212
2024-12-19 08:54:12,211169,15203
2024-12-19 08:54:12,210353,15184
2024-12-19 08:54:12,210412,15182
2024-12-19 08:54:12,211489,15227
2024-12-19 08:54:12,212438,15164
2024-12-19 08:54:12,212943,15168
2024-12-19 08:54:12,212791,15140
2024-12-19 08:54:12,212084,15136
2024-12-19 08:54:12,210889,15121
2024-12-19 08:54:12,209756,15072
2024-12-19 08:54:12,209838,15176
2024-12-19 08:54:12,210333,15138
2024-12-19 08:54:12,211230,14996
2024-12-19 08:54:12,211839,14926
2024-12-19 08:54:12,211614,14973
2024-12-19 08:54:12,210879,14897
2024-12-19 08:54:12,209933,14949
2024-12-19 08:54:12,209619,14978
2024-12-19 08:54:12,209133,15136
2024-12-19 08:54:12,209260,15137
2024-12-19 08:54:12,210151,15120
2024-12-19 08:54:12,211133,15071
2024-12-19 08:54:12,211637,15070
2024-12-19 08:54:12,211608,15001
2024-12-19 08:54:12,211052,15032
2024-12-19 08:54:12,210453,15110
2024-12-19 08:54:12,209499,15051
2024-12-19 08:54:12,209358,14889
2024-12-19 08:54:12,210251,14911
2024-12-19 08:54:12,211540,14929
2024-12-19 08:54:12,212718,14983
2024-12-19 08:54:12,213011,15015
2024-12-19 08:54:12,212453,14878
2024-12-19 08:54:12,211546,14867
2024-12-19 08:54:12,210819,14913
2024-12-19 08:54:12,210151,14931
2024-12-19 08:54:12,210583,14986
2024-12-19 08:54:12,211122,15033
2024-12-19 08:54:12,212271,15071
2024-12-19 08:54:12,212943,15027
2024-12-19 08:54:12,212770,15001
2024-12-19 08:54:12,212267,14968
2024-12-19 08:54:12,211309,14954
2024-12-19 08:54:12,210420,14947
2024-12-19 08:54:12,210275,15009
2024-12-19 08:54:12,210546,15016
2024-12-19 08:54:12,211551,14984
2024-12-19 08:54:12,212331,14965
2024-12-19 08:54:12,212494,14876
2024-12-19 08:54:12,212099,14918
2024-12-19 08:54:12,211353,14949
2024-12-19 08:54:12,210533,15000
2024-12-19 08:54:12,209909,15024
2024-12-19 08:54:12,210160,14988
2024-12-19 08:54:12,211165,15019
2024-12-19 08:54:12,211938,14971
2024-12-19 08:54:12,212534,14948
2024-12-19 08:54:12,212432,14973
2024-12-19 08:54:12,211919,14994
2024-12-19 08:54:12,211083,15031
2024-12-19 08:54:12,210188,15059
2024-12-19 08:54:12,209706,15086
2024-12-19 08:54:12,210019,15065
2024-12-19 08:54:12,211034,15121
2024-12-19 08:54:12,211984,15148
2024-12-19 08:54:12,212305,15104
2024-12-19 08:54:12,212116,15166
2024-12-19 08:54:12,211212,15184
2024-12-19 08:54:12,210386,15166
2024-12-19 08:54:12,209468,15188
2024-12-19 08:54:12,209571,15206
2024-12-19 08:54:12,210633,15231
2024-12-19 08:54:12,211739,15211
2024-12-19 08:54:12,212389,15152
2024-12-19 08:54:12,212139,15133
2024-12-19 08:54:12,211458,15140
2024-12-19 08:54:12,210582,15194
2024-12-19 08:54:12,210208,15139
2024-12-19 08:54:12,209916,15293
2024-12-19 08:54:12,210657,15389
2024-12-19 08:54:12,212121,15501
2024-12-19 08:54:12,213726,15639
2024-12-19 08:54:12,214961,15944
2024-12-19 08:54:12,215396,16220
2024-12-19 08:54:12,216019,16716
2024-12-19 08:54:12,216564,17243
2024-12-19 08:54:12,215813,17663
2024-12-19 08:54:12,215895,18043
2024-12-19 08:54:12,216358,18323
2024-12-19 08:54:12,216163,18113
2024-12-19 08:54:12,213604,16740
2024-12-19 08:54:12,209624,14773
2024-12-19 08:54:12,205527,13186
2024-12-19 08:54:12,202976,12125
2024-12-19 08:54:12,200816,10803
2024-12-19 08:54:12,196689,9873
2024-12-19 08:54:12,194812,9067
2024-12-19 08:54:12,195279,8882
2024-12-19 08:54:12,198246,8723
2024-12-19 08:54:12,198428,8202
2024-12-19 08:54:12,198619,8036
2024-12-19 08:54:12,199626,8109
2024-12-19 08:54:12,201415,8533
2024-12-19 08:54:12,203276,8937
2024-12-19 08:54:12,205238,9389
2024-12-19 08:54:12,207573,10143
2024-12-19 08:54:12,210139,10936
2024-12-19 08:54:12,211669,11717
2024-12-19 08:54:12,211887,12351
2024-12-19 08:54:12,211826,12998
2024-12-19 08:54:12,211544,13587
2024-12-19 08:54:12,210979,14059
2024-12-19 08:54:12,210459,14388
2024-12-19 08:54:12,210879,14748
2024-12-19 08:54:12,211940,14971
2024-12-19 08:54:12,212734,15163
2024-12-19 08:54:12,213189,15240
2024-12-19 08:54:12,213148,15321
2024-12-19 08:54:12,212903,15434
2024-12-19 08:54:12,212201,15466
2024-12-19 08:54:12,211206,15488
2024-12-19 08:54:12,211018,15563
2024-12-19 08:54:12,211662,15606
2024-12-19 08:54:12,212935,15667
2024-12-19 08:54:12,213743,15616
2024-12-19 08:54:12,213981,15653
2024-12-19 08:54:12,213700,15761
2024-12-19 08:54:12,212800,15790
2024-12-19 08:54:12,212011,15863
2024-12-19 08:54:12,211635,15871
2024-12-19 08:54:12,212068,15984
2024-12-19 08:54:12,212966,15969
2024-12-19 08:54:12,213824,15931
2024-12-19 08:54:12,214237,15896
2024-12-19 08:54:12,213949,15938
2024-12-19 08:54:12,213154,15923
2024-12-19 08:54:12,212466,16023
2024-12-19 08:54:12,211964,16018
2024-12-19 08:54:12,211743,16083
2024-12-19 08:54:12,212213,16101
2024-12-19 08:54:12,213477,16086
2024-12-19 08:54:12,214483,16081
2024-12-19 08:54:12,214674,16061
2024-12-19 08:54:12,214080,16104
2024-12-19 08:54:12,213123,15961
2024-12-19 08:54:12,212480,16022
2024-12-19 08:54:12,211716,16088
2024-12-19 08:54:12,211793,16101
2024-12-19 08:54:12,212959,16121
2024-12-19 08:54:12,213908,16069
2024-12-19 08:54:12,214262,15980
2024-12-19 08:54:12,214285,16057
2024-12-19 08:54:12,213669,16108
2024-12-19 08:54:12,212867,16134
2024-12-19 08:54:12,211987,16138
2024-12-19 08:54:12,212000,16103
2024-12-19 08:54:12,212859,16178
2024-12-19 08:54:12,213534,16210
2024-12-19 08:54:12,214424,16175
2024-12-19 08:54:12,214719,16192
2024-12-19 08:54:12,214550,16209
2024-12-19 08:54:12,213969,16300
2024-12-19 08:54:12,213344,16372
2024-12-19 08:54:12,212434,16374
2024-12-19 08:54:12,212359,16352
2024-12-19 08:54:12,213352,16405
2024-12-19 08:54:12,214353,16364
2024-12-19 08:54:12,215062,16383
2024-12-19 08:54:12,214971,16389
2024-12-19 08:54:12,214538,16471
2024-12-19 08:54:12,213819,16515
2024-12-19 08:54:12,213090,16616
2024-12-19 08:54:12,213209,16763
2024-12-19 08:54:12,213810,16697
2024-12-19 08:54:12,214898,16694
2024-12-19 08:54:12,215686,16676
2024-12-19 08:54:12,215638,16677
2024-12-19 08:54:12,215569,16733
2024-12-19 08:54:12,214939,16737
2024-12-19 08:54:12,214279,16784
2024-12-19 08:54:12,213529,16883
2024-12-19 08:54:12,213615,16941
2024-12-19 08:54:12,214566,16998
2024-12-19 08:54:12,215692,16999
2024-12-19 08:54:12,216352,16998
2024-12-19 08:54:12,216461,17043
2024-12-19 08:54:12,216188,17130
2024-12-19 08:54:12,215363,17122
2024-12-19 08:54:12,214718,17189
2024-12-19 08:54:12,214384,17196
2024-12-19 08:54:12,214869,17279
2024-12-19 08:54:12,216188,17238
2024-12-19 08:54:12,216941,17221
2024-12-19 08:54:12,217406,17294
2024-12-19 08:54:12,216958,17234
2024-12-19 08:54:12,216172,17216
2024-12-19 08:54:12,215405,17274
2024-12-19 08:54:12,214982,17307
2024-12-19 08:54:12,214764,17233
2024-12-19 08:54:12,215216,17269
2024-12-19 08:54:12,216461,17264
2024-12-19 08:54:12,217404,17229
2024-12-19 08:54:12,217469,17246
2024-12-19 08:54:12,216877,17185
2024-12-19 08:54:12,215893,17133
2024-12-19 08:54:12,214948,17144
2024-12-19 08:54:12,214389,17020
2024-12-19 08:54:12,214643,17054
2024-12-19 08:54:12,215720,17053
2024-12-19 08:54:12,216593,17003
2024-12-19 08:54:12,216966,16838
2024-12-19 08:54:12,216461,16773
2024-12-19 08:54:12,215340,16687
2024-12-19 08:54:12,214288,16554
2024-12-19 08:54:12,213324,16477
2024-12-19 08:54:12,213248,16449
2024-12-19 08:54:12,213812,16331
2024-12-19 08:54:12,214318,16269
2024-12-19 08:54:12,214982,16172
2024-12-19 08:54:12,214931,16103
2024-12-19 08:54:12,214488,16041
2024-12-19 08:54:12,213700,16070
2024-12-19 08:54:12,212622,16081
2024-12-19 08:54:12,211949,16082
2024-12-19 08:54:12,212161,16138
2024-12-19 08:54:12,213011,16108
2024-12-19 08:54:12,213818,15991
2024-12-19 08:54:12,214155,15859
2024-12-19 08:54:12,213932,15894
2024-12-19 08:54:12,213088,15847
2024-12-19 08:54:12,212122,15836
2024-12-19 08:54:12,211203,15807
2024-12-19 08:54:12,211115,15824
2024-12-19 08:54:12,211778,15769
2024-12-19 08:54:12,212931,15767
2024-12-19 08:54:12,213458,15764
2024-12-19 08:54:12,213248,15706
2024-12-19 08:54:12,212951,15727
2024-12-19 08:54:12,212257,15674
2024-12-19 08:54:12,211448,15779
2024-12-19 08:54:12,210651,15806
2024-12-19 08:54:12,211016,15821
2024-12-19 08:54:12,211956,15920
2024-12-19 08:54:12,212911,15867
2024-12-19 08:54:12,213576,15850
2024-12-19 08:54:12,213196,15758
2024-12-19 08:54:12,212583,15775
2024-12-19 08:54:12,211612,15823
2024-12-19 08:54:12,210848,15843
2024-12-19 08:54:12,210711,15807
2024-12-19 08:54:12,211244,15788
2024-12-19 08:54:12,212474,15815
2024-12-19 08:54:12,213288,15833
2024-12-19 08:54:12,213259,15818
2024-12-19 08:54:12,212834,15842
2024-12-19 08:54:12,211814,15891
2024-12-19 08:54:12,211213,15936
2024-12-19 08:54:12,210910,15935
2024-12-19 08:54:12,210870,15934
2024-12-19 08:54:12,211829,15927
2024-12-19 08:54:12,212659,15882
2024-12-19 08:54:12,213388,15867
2024-12-19 08:54:12,213234,15826
2024-12-19 08:54:12,212634,15850
2024-12-19 08:54:12,211803,15886
2024-12-19 08:54:12,210751,15886
2024-12-19 08:54:12,210568,15941
2024-12-19 08:54:12,210956,15840
2024-12-19 08:54:12,212217,15886
2024-12-19 08:54:12,213046,15795
2024-12-19 08:54:12,213227,15879
2024-12-19 08:54:12,212859,15903
2024-12-19 08:54:12,212054,15950
2024-12-19 08:54:12,211344,16053
2024-12-19 08:54:12,210803,16081
2024-12-19 08:54:12,211094,16066
2024-12-19 08:54:12,212445,16073
2024-12-19 08:54:12,213004,16098
2024-12-19 08:54:12,213518,16068
2024-12-19 08:54:12,213276,15981
2024-12-19 08:54:12,212834,15933
2024-12-19 08:54:12,212096,15996
2024-12-19 08:54:12,210948,15990
2024-12-19 08:54:12,210408,15988
2024-12-19 08:54:12,210812,15962
2024-12-19 08:54:12,211859,15918
2024-12-19 08:54:12,212598,15803
2024-12-19 08:54:12,212961,15813
2024-12-19 08:54:12,212714,15850
2024-12-19 08:54:12,211883,15833
2024-12-19 08:54:12,210941,15866
2024-12-19 08:54:12,210416,15904
2024-12-19 08:54:12,210697,15908
2024-12-19 08:54:12,211766,15881
2024-12-19 08:54:12,212653,15878
2024-12-19 08:54:12,213111,15824
2024-12-19 08:54:12,213036,15833
2024-12-19 08:54:12,212853,15860
2024-12-19 08:54:12,211787,15832
2024-12-19 08:54:12,210976,15837
2024-12-19 08:54:12,210584,15867
2024-12-19 08:54:12,210916,15828
2024-12-19 08:54:12,211856,15804
2024-12-19 08:54:12,212686,15816
2024-12-19 08:54:12,213129,15803
2024-12-19 08:54:12,212873,15823
2024-12-19 08:54:12,212078,15703
2024-12-19 08:54:12,211110,15756
2024-12-19 08:54:12,210489,15823
2024-12-19 08:54:12,210714,15848
2024-12-19 08:54:12,211364,15812
2024-12-19 08:54:12,212398,15753
2024-12-19 08:54:12,213151,15767
2024-12-19 08:54:12,212957,15779
2024-12-19 08:54:12,212359,15763
2024-12-19 08:54:12,211674,15756
2024-12-19 08:54:12,211253,15781
2024-12-19 08:54:12,210625,15769
2024-12-19 08:54:12,210813,15799
2024-12-19 08:54:12,211469,15742
2024-12-19 08:54:12,212543,15723
2024-12-19 08:54:12,213226,15723
2024-12-19 08:54:12,213137,15672
2024-12-19 08:54:12,212244,15656
2024-12-19 08:54:12,211630,15626
2024-12-19 08:54:12,210913,15592
2024-12-19 08:54:12,210806,15634
2024-12-19 08:54:12,211252,15559
2024-12-19 08:54:12,212279,15554
2024-12-19 08:54:12,213130,15536
2024-12-19 08:54:12,213338,15513
2024-12-19 08:54:12,212853,15537
2024-12-19 08:54:12,212133,15499
2024-12-19 08:54:12,211393,15496
2024-12-19 08:54:12,210932,15530
2024-12-19 08:54:12,211269,15473
2024-12-19 08:54:12,211716,15493
2024-12-19 08:54:12,212491,15458
2024-12-19 08:54:12,213343,15349
2024-12-19 08:54:12,213316,15301
2024-12-19 08:54:12,212649,15305
2024-12-19 08:54:12,212021,15314
2024-12-19 08:54:12,211171,15359
2024-12-19 08:54:12,210881,15409
2024-12-19 08:54:12,211189,15389
2024-12-19 08:54:12,212253,15326
2024-12-19 08:54:12,213416,15351
2024-12-19 08:54:12,213566,15358
2024-12-19 08:54:12,213142,15324
2024-12-19 08:54:12,212249,15308
2024-12-19 08:54:12,211341,15331
2024-12-19 08:54:12,210808,15297
2024-12-19 08:54:12,210850,15346
2024-12-19 08:54:12,211910,15268
2024-12-19 08:54:12,212924,15269
2024-12-19 08:54:12,213376,15158
2024-12-19 08:54:12,213213,15115
2024-12-19 08:54:12,212593,15118
2024-12-19 08:54:12,211859,15147
2024-12-19 08:54:12,210986,15224
2024-12-19 08:54:12,210637,15207
2024-12-19 08:54:12,211030,15213
2024-12-19 08:54:12,212089,15168
2024-12-19 08:54:12,213086,15116
2024-12-19 08:54:12,213287,15122
2024-12-19 08:54:12,212941,15141
2024-12-19 08:54:12,212168,15139
2024-12-19 08:54:12,211478,15166
2024-12-19 08:54:12,210705,15200
2024-12-19 08:54:12,211113,15228
2024-12-19 08:54:12,212088,15126
2024-12-19 08:54:12,213099,14995
2024-12-19 08:54:12,213638,14912
2024-12-19 08:54:12,213396,14824
2024-12-19 08:54:12,212637,14844
2024-12-19 08:54:12,211974,14871
2024-12-19 08:54:12,211397,14853
2024-12-19 08:54:12,210875,14791
2024-12-19 08:54:12,211170,14808
2024-12-19 08:54:12,212080,14715
2024-12-19 08:54:12,212745,14639
2024-12-19 08:54:12,212854,14524
2024-12-19 08:54:12,212463,14462
2024-12-19 08:54:12,211370,14360
2024-12-19 08:54:12,210529,14343
2024-12-19 08:54:12,209811,14421
2024-12-19 08:54:12,209967,14505
2024-12-19 08:54:12,210973,14594
2024-12-19 08:54:12,212367,14634
2024-12-19 08:54:12,213120,14586
2024-12-19 08:54:12,212925,14582
2024-12-19 08:54:12,212043,14560
2024-12-19 08:54:12,211278,14535
2024-12-19 08:54:12,210304,14432
2024-12-19 08:54:12,210346,14379
2024-12-19 08:54:12,211121,14374
2024-12-19 08:54:12,211627,14306
2024-12-19 08:54:12,213059,14264
2024-12-19 08:54:12,214017,14338
2024-12-19 08:54:12,214010,14306
2024-12-19 08:54:12,213316,14214
2024-12-19 08:54:12,212674,14233
2024-12-19 08:54:12,211733,14141
2024-12-19 08:54:12,211524,13988
2024-12-19 08:54:12,212536,14016
2024-12-19 08:54:12,213723,14014
2024-12-19 08:54:12,214425,13931
2024-12-19 08:54:12,214266,13889
2024-12-19 08:54:12,213608,13881
2024-12-19 08:54:12,212788,13912
2024-12-19 08:54:12,211649,13857
2024-12-19 08:54:12,211351,13821
2024-12-19 08:54:12,211966,13812
2024-12-19 08:54:12,213126,13826
2024-12-19 08:54:12,213988,13758
2024-12-19 08:54:12,214238,13771
2024-12-19 08:54:12,214204,13758
2024-12-19 08:54:12,213708,13778
2024-12-19 08:54:12,212677,13765
2024-12-19 08:54:12,211772,13710
2024-12-19 08:54:12,211421,13658
2024-12-19 08:54:12,211991,13556
2024-12-19 08:54:12,213273,13509
2024-12-19 08:54:12,214158,13504
2024-12-19 08:54:12,214004,13446
2024-12-19 08:54:12,213770,13439
2024-12-19 08:54:12,212839,13474
2024-12-19 08:54:12,212007,13549
2024-12-19 08:54:12,211637,13543
2024-12-19 08:54:12,212268,13552
2024-12-19 08:54:12,213536,13591
2024-12-19 08:54:12,214297,13519
2024-12-19 08:54:12,214669,13473
2024-12-19 08:54:12,214318,13460
2024-12-19 08:54:12,213341,13446
2024-12-19 08:54:12,212454,13398
2024-12-19 08:54:12,211906,13364
2024-12-19 08:54:12,211729,13401
2024-12-19 08:54:12,212283,13378
2024-12-19 08:54:12,213533,13329
2024-12-19 08:54:12,214274,13251
2024-12-19 08:54:12,214538,13231
2024-12-19 08:54:12,214286,13330
2024-12-19 08:54:12,213313,13279
2024-12-19 08:54:12,212242,13254
2024-12-19 08:54:12,211844,13334
2024-12-19 08:54:12,212294,13371
2024-12-19 08:54:12,213457,13313
2024-12-19 08:54:12,214706,13307
2024-12-19 08:54:12,215885,13473
2024-12-19 08:54:12,216419,13641
2024-12-19 08:54:12,216475,13994
2024-12-19 08:54:12,216331,14305
2024-12-19 08:54:12,217038,14811
2024-12-19 08:54:12,218815,15345
2024-12-19 08:54:12,219921,15735
2024-12-19 08:54:12,220528,15914
2024-12-19 08:54:12,221959,16234
2024-12-19 08:54:12,221192,16678
2024-12-19 08:54:12,218306,15948
2024-12-19 08:54:12,213541,14362
2024-12-19 08:54:12,208236,12690
2024-12-19 08:54:12,205534,11642
2024-12-19 08:54:12,204290,10681
2024-12-19 08:54:12,202817,9563
2024-12-19 08:54:12,199039,8731
2024-12-19 08:54:12,198379,8252
2024-12-19 08:54:12,199869,8061
2024-12-19 08:54:12,198471,7488
2024-12-19 08:54:12,197248,7204
2024-12-19 08:54:12,197568,7228
2024-12-19 08:54:12,200135,7437
2024-12-19 08:54:12,204025,7828
2024-12-19 08:54:12,207460,8316
2024-12-19 08:54:12,210000,8961
2024-12-19 08:54:13,211568,9759
2024-12-19 08:54:13,211768,10118
2024-12-19 08:54:13,211531,10798
2024-12-19 08:54:13,210786,11511
2024-12-19 08:54:13,210566,12285
2024-12-19 08:54:13,211449,12909
2024-12-19 08:54:13,212484,13280
2024-12-19 08:54:13,213484,13523
2024-12-19 08:54:13,214141,13818
2024-12-19 08:54:13,214031,14023
2024-12-19 08:54:13,213333,14165
2024-12-19 08:54:13,212464,14369
2024-12-19 08:54:13,211665,14446
2024-12-19 08:54:13,211789,14558
2024-12-19 08:54:13,212584,14699
2024-12-19 08:54:13,213884,14699
2024-12-19 08:54:13,214754,14663
2024-12-19 08:54:13,214783,14665
2024-12-19 08:54:13,214166,14733
2024-12-19 08:54:13,213359,14832
2024-12-19 08:54:13,212568,14978
2024-12-19 08:54:13,212152,14962
2024-12-19 08:54:13,212229,14988
2024-12-19 08:54:13,213014,14963
2024-12-19 08:54:13,214084,14913
2024-12-19 08:54:13,214919,14999
2024-12-19 08:54:13,214827,14974
2024-12-19 08:54:13,214242,15048
2024-12-19 08:54:13,213354,15091
2024-12-19 08:54:13,212363,15189
2024-12-19 08:54:13,212122,15219
2024-12-19 08:54:13,212840,15266
2024-12-19 08:54:13,214191,15233
2024-12-19 08:54:13,215113,15314
2024-12-19 08:54:13,215177,15286
2024-12-19 08:54:13,214704,15283
2024-12-19 08:54:13,213778,15341
2024-12-19 08:54:13,212636,15353
2024-12-19 08:54:13,212149,15463
2024-12-19 08:54:13,212581,15489
2024-12-19 08:54:13,213890,15466
2024-12-19 08:54:13,214469,15507
2024-12-19 08:54:13,215279,15589
2024-12-19 08:54:13,214993,15583
2024-12-19 08:54:13,214574,15609
2024-12-19 08:54:13,213639,15715
2024-12-19 08:54:13,212714,15739
2024-12-19 08:54:13,212371,15780
2024-12-19 08:54:13,212727,15809
2024-12-19 08:54:13,214008,15872
2024-12-19 08:54:13,214930,15869
2024-12-19 08:54:13,215331,15911
2024-12-19 08:54:13,214252,15989
2024-12-19 08:54:13,213425,16078
2024-12-19 08:54:13,212781,16182
2024-12-19 08:54:13,212869,16254
2024-12-19 08:54:13,213788,16289
2024-12-19 08:54:13,215118,16300
2024-12-19 08:54:13,215974,16433
2024-12-19 08:54:13,215770,16501
2024-12-19 08:54:13,215529,16511
2024-12-19 08:54:13,214825,16556
2024-12-19 08:54:13,213892,16686
2024-12-19 08:54:13,213200,16728
2024-12-19 08:54:13,213568,16687
2024-12-19 08:54:13,214773,16674
2024-12-19 08:54:13,215906,16821
2024-12-19 08:54:13,216694,16926
2024-12-19 08:54:13,216513,16991
2024-12-19 08:54:13,215694,16958
2024-12-19 08:54:13,214871,17029
2024-12-19 08:54:13,214242,17123
2024-12-19 08:54:13,214322,17069
2024-12-19 08:54:13,215311,17064
2024-12-19 08:54:13,216816,17156
2024-12-19 08:54:13,217487,17155
2024-12-19 08:54:13,217496,17197
2024-12-19 08:54:13,217139,17376
2024-12-19 08:54:13,216291,17431
2024-12-19 08:54:13,215389,17491
2024-12-19 08:54:13,215282,17496
2024-12-19 08:54:13,215458,17424
2024-12-19 08:54:13,216593,17451
2024-12-19 08:54:13,217849,17648
2024-12-19 08:54:13,218651,17722
2024-12-19 08:54:13,218717,17838
2024-12-19 08:54:13,218088,17897
2024-12-19 08:54:13,217098,18021
2024-12-19 08:54:13,216135,18093
2024-12-19 08:54:13,216143,18044
2024-12-19 08:54:13,216862,18069
2024-12-19 08:54:13,218026,18048
2024-12-19 08:54:13,218824,18070
2024-12-19 08:54:13,218744,18038
2024-12-19 08:54:13,218113,18173
2024-12-19 08:54:13,217134,18293
2024-12-19 08:54:13,216207,18336
2024-12-19 08:54:13,215659,18361
2024-12-19 08:54:13,216049,18413
2024-12-19 08:54:13,217144,18438
2024-12-19 08:54:13,217559,18452
2024-12-19 08:54:13,217835,18473
2024-12-19 08:54:13,217530,18476
2024-12-19 08:54:13,216690,18479
2024-12-19 08:54:13,215626,18499
2024-12-19 08:54:13,214548,18539
2024-12-19 08:54:13,213991,18504
2024-12-19 08:54:13,214279,18507
2024-12-19 08:54:13,215369,18431
2024-12-19 08:54:13,215905,18448
2024-12-19 08:54:13,215728,18443
2024-12-19 08:54:13,215246,18408
2024-12-19 08:54:13,214014,18459
2024-12-19 08:54:13,212751,18515
2024-12-19 08:54:13,212014,18562
2024-12-19 08:54:13,212466,18704
2024-12-19 08:54:13,213255,18673
2024-12-19 08:54:13,213794,18613
2024-12-19 08:54:13,214043,18645
2024-12-19 08:54:13,213572,18561
2024-12-19 08:54:13,213211,18639
2024-12-19 08:54:13,212303,18772
2024-12-19 08:54:13,211166,18713
2024-12-19 08:54:13,210808,18771
2024-12-19 08:54:13,211119,18853
2024-12-19 08:54:13,212221,18810
2024-12-19 08:54:13,212893,18826
2024-12-19 08:54:13,212906,18821
2024-12-19 08:54:13,212651,18891
2024-12-19 08:54:13,211763,18988
2024-12-19 08:54:13,210558,19041
2024-12-19 08:54:13,209784,19091
2024-12-19 08:54:13,210044,19091
2024-12-19 08:54:13,211127,19091
2024-12-19 08:54:13,212028,19186
2024-12-19 08:54:13,212444,19206
2024-12-19 08:54:13,212401,19203
2024-12-19 08:54:13,211719,19277
2024-12-19 08:54:13,210678,19368
2024-12-19 08:54:13,209846,19460
2024-12-19 08:54:13,209639,19472
2024-12-19 08:54:13,209923,19505
2024-12-19 08:54:13,211046,19561
2024-12-19 08:54:13,211647,19507
2024-12-19 08:54:13,212153,19518
2024-12-19 08:54:13,211881,19644
2024-12-19 08:54:13,211014,19759
2024-12-19 08:54:13,210224,19794
2024-12-19 08:54:13,209829,19976
2024-12-19 08:54:13,209888,19953
2024-12-19 08:54:13,210631,19913
2024-12-19 08:54:13,211512,19866
2024-12-19 08:54:13,212145,19846
2024-12-19 08:54:13,211912,19805
2024-12-19 08:54:13,211366,19813
2024-12-19 08:54:13,210456,19831
2024-12-19 08:54:13,209637,19820
2024-12-19 08:54:13,209604,19838
2024-12-19 08:54:13,209986,19683
2024-12-19 08:54:13,211073,19721
2024-12-19 08:54:13,211504,19726
2024-12-19 08:54:13,212087,19781
2024-12-19 08:54:13,211781,19690
2024-12-19 08:54:13,211106,19726
2024-12-19 08:54:13,210153,19624
2024-12-19 08:54:13,209526,19521
2024-12-19 08:54:13,209727,19648
2024-12-19 08:54:13,210410,19578
2024-12-19 08:54:13,211688,19680
2024-12-19 08:54:13,212466,19674
2024-12-19 08:54:13,212443,19629
2024-12-19 08:54:13,212083,19694
2024-12-19 08:54:13,211288,19593
2024-12-19 08:54:13,210197,19449
2024-12-19 08:54:13,209710,19320
2024-12-19 08:54:13,210146,19239
2024-12-19 08:54:13,211230,19173
2024-12-19 08:54:13,211822,19166
2024-12-19 08:54:13,212074,19097
2024-12-19 08:54:13,211808,18996
2024-12-19 08:54:13,211391,18989
2024-12-19 08:54:13,210612,19003
2024-12-19 08:54:13,210070,19066
2024-12-19 08:54:13,210170,18933
2024-12-19 08:54:13,210733,18887
2024-12-19 08:54:13,211734,18816
2024-12-19 08:54:13,212359,18732
2024-12-19 08:54:13,212330,18641
2024-12-19 08:54:13,211924,18573
2024-12-19 08:54:13,210941,18462
2024-12-19 08:54:13,209966,18428
2024-12-19 08:54:13,209603,18298
2024-12-19 08:54:13,209883,18211
2024-12-19 08:54:13,210848,18154
2024-12-19 08:54:13,211846,18107
2024-12-19 08:54:13,212019,18003
2024-12-19 08:54:13,211656,18000
2024-12-19 08:54:13,211176,17953
2024-12-19 08:54:13,210437,17914
2024-12-19 08:54:13,209704,17898
2024-12-19 08:54:13,209798,17869
2024-12-19 08:54:13,210302,17896
2024-12-19 08:54:13,211355,17753
2024-12-19 08:54:13,212066,17735
2024-12-19 08:54:13,212289,17754
2024-12-19 08:54:13,212068,17713
2024-12-19 08:54:13,211192,17662
2024-12-19 08:54:13,210299,17561
2024-12-19 08:54:13,209706,17483
2024-12-19 08:54:13,209896,17449
2024-12-19 08:54:13,210859,17346
2024-12-19 08:54:13,211661,17336
2024-12-19 08:54:13,211855,17298
2024-12-19 08:54:13,211808,17305
2024-12-19 08:54:13,211138,17258
2024-12-19 08:54:13,210339,17256
2024-12-19 08:54:13,209559,17135
2024-12-19 08:54:13,209544,17124
2024-12-19 08:54:13,210406,17090
2024-12-19 08:54:13,211277,17049
2024-12-19 08:54:13,211728,17041
2024-12-19 08:54:13,212014,16975
2024-12-19 08:54:13,211768,16979
2024-12-19 08:54:13,210976,16979
2024-12-19 08:54:13,210046,16892
2024-12-19 08:54:13,209649,16988
2024-12-19 08:54:13,209816,16911
2024-12-19 08:54:13,210476,16949
2024-12-19 08:54:13,211328,16836
2024-12-19 08:54:13,211698,16803
2024-12-19 08:54:13,211438,16746
2024-12-19 08:54:13,210511,16746
2024-12-19 08:54:13,209574,16579
2024-12-19 08:54:13,208909,16583
2024-12-19 08:54:13,209003,16564
2024-12-19 08:54:13,209419,16556
2024-12-19 08:54:13,210769,16511
2024-12-19 08:54:13,211546,16521
2024-12-19 08:54:13,211652,16469
2024-12-19 08:54:13,211313,16466
2024-12-19 08:54:13,210917,16396
2024-12-19 08:54:13,210255,16394
2024-12-19 08:54:13,209683,16408
2024-12-19 08:54:13,209894,16369
2024-12-19 08:54:13,210704,16310
2024-12-19 08:54:13,211765,16286
2024-12-19 08:54:13,212323,16285
2024-12-19 08:54:13,212098,16183
2024-12-19 08:54:13,211597,16111
2024-12-19 08:54:13,210916,16055
2024-12-19 08:54:13,210171,16042
2024-12-19 08:54:13,210058,16023
2024-12-19 08:54:13,210770,15954
2024-12-19 08:54:13,211838,15836
2024-12-19 08:54:13,212623,15765
2024-12-19 08:54:13,212787,15681
2024-12-19 08:54:13,212445,15552
2024-12-19 08:54:13,211851,15516
2024-12-19 08:54:13,211196,15447
2024-12-19 08:54:13,210983,15479
2024-12-19 08:54:13,211052,15318
2024-12-19 08:54:13,211686,15265
2024-12-19 08:54:13,212666,15074
2024-12-19 08:54:13,213434,14954
2024-12-19 08:54:13,213406,14809
2024-12-19 08:54:13,212941,14746
2024-12-19 08:54:13,212049,14573
2024-12-19 08:54:13,211434,14621
2024-12-19 08:54:13,211200,14493
2024-12-19 08:54:13,211568,14419
2024-12-19 08:54:13,212499,14271
2024-12-19 08:54:13,213297,14158
2024-12-19 08:54:13,213348,14151
2024-12-19 08:54:13,212951,14049
2024-12-19 08:54:13,212029,13865
2024-12-19 08:54:13,210975,13858
2024-12-19 08:54:13,210626,13764
2024-12-19 08:54:13,210831,13739
2024-12-19 08:54:13,211788,13764
2024-12-19 08:54:13,212251,13794
2024-12-19 08:54:13,213098,13719
2024-12-19 08:54:13,213251,13641
2024-12-19 08:54:13,213063,13533
2024-12-19 08:54:13,212398,13471
2024-12-19 08:54:13,211650,13471
2024-12-19 08:54:13,211122,13374
2024-12-19 08:54:13,211503,13310
2024-12-19 08:54:13,212973,13325
2024-12-19 08:54:13,214123,13173
2024-12-19 08:54:13,214423,13049
2024-12-19 08:54:13,214536,12946
2024-12-19 08:54:13,213894,12801
2024-12-19 08:54:13,213098,12739
2024-12-19 08:54:13,212628,12725
2024-12-19 08:54:13,212811,12573
2024-12-19 08:54:13,213654,12402
2024-12-19 08:54:13,214686,12366
2024-12-19 08:54:13,215426,12271
2024-12-19 08:54:13,215428,12196
2024-12-19 08:54:13,215243,12189
2024-12-19 08:54:13,214495,12154
2024-12-19 08:54:13,213706,12171
2024-12-19 08:54:13,213094,12126
2024-12-19 08:54:13,213404,12116
2024-12-19 08:54:13,214395,12046
2024-12-19 08:54:13,215182,11954
2024-12-19 08:54:13,215660,12011
2024-12-19 08:54:13,215608,12083
2024-12-19 08:54:13,215163,12221
2024-12-19 08:54:13,214336,12214
2024-12-19 08:54:13,213559,12279
2024-12-19 08:54:13,213311,12192
2024-12-19 08:54:13,213870,12133
2024-12-19 08:54:13,215189,12123
2024-12-19 08:54:13,215839,12070
2024-12-19 08:54:13,215872,12188
2024-12-19 08:54:13,215301,12256
2024-12-19 08:54:13,214444,12277
2024-12-19 08:54:13,213706,12391
2024-12-19 08:54:13,213593,12481
2024-12-19 08:54:13,213799,12408
2024-12-19 08:54:13,214659,12340
2024-12-19 08:54:13,215636,12156
2024-12-19 08:54:13,216260,12095
2024-12-19 08:54:13,216004,11918
2024-12-19 08:54:13,215354,11901
2024-12-19 08:54:13,214279,11894
2024-12-19 08:54:13,213460,11834
2024-12-19 08:54:13,213298,11771
2024-12-19 08:54:13,213968,11849
2024-12-19 08:54:13,215136,11843
2024-12-19 08:54:13,215737,11850
2024-12-19 08:54:13,215732,11894
2024-12-19 08:54:13,215219,11983
2024-12-19 08:54:13,214311,12047
2024-12-19 08:54:13,213242,12158
2024-12-19 08:54:13,212818,12246
2024-12-19 08:54:13,213531,12393
2024-12-19 08:54:13,214834,12393
2024-12-19 08:54:13,215173,12370
2024-12-19 08:54:13,215927,12393
2024-12-19 08:54:13,215958,12410
2024-12-19 08:54:13,215664,12442
2024-12-19 08:54:13,215419,12503
2024-12-19 08:54:13,215590,12746
2024-12-19 08:54:13,216364,13036
2024-12-19 08:54:13,217661,13269
2024-12-19 08:54:13,220786,13808
2024-12-19 08:54:13,223627,14325
2024-12-19 08:54:13,224309,14719
2024-12-19 08:54:13,224547,15238
2024-12-19 08:54:13,224172,15696
2024-12-19 08:54:13,221586,15813
2024-12-19 08:54:13,217178,14713
2024-12-19 08:54:13,213356,12936
2024-12-19 08:54:13,211728,11793
2024-12-19 08:54:13,210806,10966
2024-12-19 08:54:13,209563,9877
2024-12-19 08:54:13,204093,8951
2024-12-19 08:54:13,201034,8541
2024-12-19 08:54:13,197981,7928
2024-12-19 08:54:13,198209,7736
2024-12-19 08:54:13,196798,7338
2024-12-19 08:54:13,196713,6988
2024-12-19 08:54:13,198358,6993
2024-12-19 08:54:13,202436,7224
2024-12-19 08:54:13,206228,7509
2024-12-19 08:54:13,208314,7868
2024-12-19 08:54:13,209427,8531
2024-12-19 08:54:13,210962,9374
2024-12-19 08:54:13,211047,10080
2024-12-19 08:54:13,211454,10698
2024-12-19 08:54:13,212942,11331
2024-12-19 08:54:13,214774,11932
2024-12-19 08:54:13,216048,12478
2024-12-19 08:54:13,215646,12639
2024-12-19 08:54:13,214585,12926
2024-12-19 08:54:13,213561,13193
2024-12-19 08:54:13,212655,13423
2024-12-19 08:54:13,212740,13583
2024-12-19 08:54:13,213360,13784
2024-12-19 08:54:13,214784,13935
2024-12-19 08:54:13,215692,13936
2024-12-19 08:54:13,215982,14004
2024-12-19 08:54:13,215777,14059
2024-12-19 08:54:13,215134,14248
2024-12-19 08:54:13,214349,14400
2024-12-19 08:54:13,213698,14590
2024-12-19 08:54:13,213951,14763
2024-12-19 08:54:13,215038,14933
2024-12-19 08:54:13,216096,14889
2024-12-19 08:54:13,216896,14894
2024-12-19 08:54:13,216414,14880
2024-12-19 08:54:13,215686,14956
2024-12-19 08:54:13,214577,14917
2024-12-19 08:54:13,213653,14938
2024-12-19 08:54:13,213482,15031
2024-12-19 08:54:13,214299,15023
2024-12-19 08:54:13,215628,14973
2024-12-19 08:54:13,216214,14872
2024-12-19 08:54:13,217006,14793
2024-12-19 08:54:13,216726,14749
2024-12-19 08:54:13,215806,14794
2024-12-19 08:54:13,214814,14898
2024-12-19 08:54:13,213678,14908
2024-12-19 08:54:13,213633,14911
2024-12-19 08:54:13,214490,15046
2024-12-19 08:54:13,215686,15028
2024-12-19 08:54:13,216618,14984
2024-12-19 08:54:13,216539,15041
2024-12-19 08:54:13,216108,15054
2024-12-19 08:54:13,215282,15048
2024-12-19 08:54:13,214374,15132
2024-12-19 08:54:13,214215,15281
2024-12-19 08:54:13,214815,15432
2024-12-19 08:54:13,216060,15425
2024-12-19 08:54:13,217173,15456
2024-12-19 08:54:13,217387,15392
2024-12-19 08:54:13,217126,15509
2024-12-19 08:54:13,216763,15610
2024-12-19 08:54:13,215821,15552
2024-12-19 08:54:13,214840,15525
2024-12-19 08:54:13,214689,15548
2024-12-19 08:54:13,215531,15615
2024-12-19 08:54:13,217001,15671
2024-12-19 08:54:13,217742,15589
2024-12-19 08:54:13,217896,15642
2024-12-19 08:54:13,217441,15660
2024-12-19 08:54:13,216514,15876
2024-12-19 08:54:13,215654,16006
2024-12-19 08:54:13,215223,16078
2024-12-19 08:54:13,215615,16154
2024-12-19 08:54:13,216925,16312
2024-12-19 08:54:13,217885,16276
2024-12-19 08:54:13,218519,16386
2024-12-19 08:54:13,218299,16486
2024-12-19 08:54:13,217485,16521
2024-12-19 08:54:13,216893,16654
2024-12-19 08:54:13,216178,16729
2024-12-19 08:54:13,216338,16723
2024-12-19 08:54:13,217119,16722
2024-12-19 08:54:13,218579,16771
2024-12-19 08:54:13,219531,16656
2024-12-19 08:54:13,220011,16646
2024-12-19 08:54:13,219806,16705
2024-12-19 08:54:13,218815,16624
2024-12-19 08:54:13,218008,16654
2024-12-19 08:54:13,217357,16594
2024-12-19 08:54:13,217731,16567
2024-12-19 08:54:13,219066,16508
2024-12-19 08:54:13,220187,16576
2024-12-19 08:54:13,220953,16557
2024-12-19 08:54:13,220806,16573
2024-12-19 08:54:13,220175,16634
2024-12-19 08:54:13,219332,16664
2024-12-19 08:54:13,218292,16652
2024-12-19 08:54:13,218462,16716
2024-12-19 08:54:13,219543,16775
2024-12-19 08:54:13,220919,16592
2024-12-19 08:54:13,221427,16436
2024-12-19 08:54:13,221863,16043
2024-12-19 08:54:13,221624,15738
2024-12-19 08:54:13,220693,15364
2024-12-19 08:54:13,219773,15065
2024-12-19 08:54:13,218706,14793
2024-12-19 08:54:13,218721,14406
2024-12-19 08:54:13,219507,13996
2024-12-19 08:54:13,220544,13529
2024-12-19 08:54:13,221262,13394
2024-12-19 08:54:13,220984,13385
2024-12-19 08:54:13,219664,13413
2024-12-19 08:54:13,218549,13716
2024-12-19 08:54:13,217245,13775
2024-12-19 08:54:13,217043,13908
2024-12-19 08:54:13,217678,13993
2024-12-19 08:54:13,218846,14004
2024-12-19 08:54:13,219393,13977
2024-12-19 08:54:13,219275,13981
2024-12-19 08:54:13,218416,14054
2024-12-19 08:54:13,217764,14083
2024-12-19 08:54:13,216565,14106
2024-12-19 08:54:13,215336,14246
2024-12-19 08:54:13,215069,14364
2024-12-19 08:54:13,216191,14544
2024-12-19 08:54:13,216924,14485
2024-12-19 08:54:13,217381,14571
2024-12-19 08:54:13,216924,14726
2024-12-19 08:54:13,215794,14604
2024-12-19 08:54:13,214522,14742
2024-12-19 08:54:13,213403,14781
2024-12-19 08:54:13,213150,14791
2024-12-19 08:54:13,213776,15029
2024-12-19 08:54:13,214983,15224
2024-12-19 08:54:13,216121,15349
2024-12-19 08:54:13,216366,15447
2024-12-19 08:54:13,215604,15514
2024-12-19 08:54:13,214556,15620
2024-12-19 08:54:13,213403,15673
2024-12-19 08:54:13,212650,15707
2024-12-19 08:54:13,212554,15714
2024-12-19 08:54:13,213344,15778
2024-12-19 08:54:13,214454,15721
2024-12-19 08:54:13,215585,15839
2024-12-19 08:54:13,215814,15962
2024-12-19 08:54:13,214931,15759
2024-12-19 08:54:13,213891,15774
2024-12-19 08:54:13,212693,15807
2024-12-19 08:54:13,212238,15754
2024-12-19 08:54:13,212800,15808
2024-12-19 08:54:13,214021,15784
2024-12-19 08:54:13,215000,15748
2024-12-19 08:54:13,215364,15867
2024-12-19 08:54:13,214959,15927
2024-12-19 08:54:13,213961,15975
2024-12-19 08:54:13,212880,16068
2024-12-19 08:54:13,212166,16232
2024-12-19 08:54:13,212422,16246
2024-12-19 08:54:13,213639,16235
2024-12-19 08:54:13,215004,16224
2024-12-19 08:54:13,215502,16228
2024-12-19 08:54:13,215508,16244
2024-12-19 08:54:13,215044,16414
2024-12-19 08:54:13,213901,16523
2024-12-19 08:54:13,212758,16644
2024-12-19 08:54:13,212064,16623
2024-12-19 08:54:13,212607,16671
2024-12-19 08:54:13,214177,16633
2024-12-19 08:54:13,215249,16652
2024-12-19 08:54:13,215584,16513
2024-12-19 08:54:13,215049,16515
2024-12-19 08:54:13,213882,16465
2024-12-19 08:54:13,212452,16324
2024-12-19 08:54:13,211434,16401
2024-12-19 08:54:13,211533,16406
2024-12-19 08:54:13,212741,16534
2024-12-19 08:54:13,214038,16492
2024-12-19 08:54:14,214891,16476
2024-12-19 08:54:14,214767,16484
2024-12-19 08:54:14,213944,16469
2024-12-19 08:54:14,213423,16514
2024-12-19 08:54:14,212550,16711
2024-12-19 08:54:14,211689,16908
2024-12-19 08:54:14,212003,17038
2024-12-19 08:54:14,213316,17045
2024-12-19 08:54:14,214304,17089
2024-12-19 08:54:14,215104,17234
2024-12-19 08:54:14,214944,17417
2024-12-19 08:54:14,213974,17428
2024-12-19 08:54:14,212828,17461
2024-12-19 08:54:14,211457,17418
2024-12-19 08:54:14,211565,17474
2024-12-19 08:54:14,212441,17266
2024-12-19 08:54:14,213721,17106
2024-12-19 08:54:14,214561,16923
2024-12-19 08:54:14,214718,16914
2024-12-19 08:54:14,213932,16868
2024-12-19 08:54:14,212784,16944
2024-12-19 08:54:14,211660,17100
2024-12-19 08:54:14,211483,17206
2024-12-19 08:54:14,211749,17285
2024-12-19 08:54:14,212929,17357
2024-12-19 08:54:14,214128,17271
2024-12-19 08:54:14,214801,17207
2024-12-19 08:54:14,214943,17238
2024-12-19 08:54:14,213946,17196
2024-12-19 08:54:14,212735,17157
2024-12-19 08:54:14,211671,17135
2024-12-19 08:54:14,211533,17182
2024-12-19 08:54:14,212225,17148
2024-12-19 08:54:14,213647,17204
2024-12-19 08:54:14,214475,17188
2024-12-19 08:54:14,214694,17253
2024-12-19 08:54:14,214266,17224
2024-12-19 08:54:14,213335,17163
2024-12-19 08:54:14,211887,17043
2024-12-19 08:54:14,211224,17044
2024-12-19 08:54:14,211679,16991
2024-12-19 08:54:14,212826,16883
2024-12-19 08:54:14,214158,16923
2024-12-19 08:54:14,214601,16837
2024-12-19 08:54:14,214182,16729
2024-12-19 08:54:14,213467,16705
2024-12-19 08:54:14,212311,16765
2024-12-19 08:54:14,211178,16769
2024-12-19 08:54:14,210894,16659
2024-12-19 08:54:14,211543,16500
2024-12-19 08:54:14,213006,16219
2024-12-19 08:54:14,214254,16083
2024-12-19 08:54:14,214544,15969
2024-12-19 08:54:14,214029,15924
2024-12-19 08:54:14,212942,15997
2024-12-19 08:54:14,211617,15908
2024-12-19 08:54:14,210731,15709
2024-12-19 08:54:14,211151,15521
2024-12-19 08:54:14,212241,15171
2024-12-19 08:54:14,213367,14878
2024-12-19 08:54:14,214434,14751
2024-12-19 08:54:14,213861,14829
2024-12-19 08:54:14,212835,14979
2024-12-19 08:54:14,212333,15061
2024-12-19 08:54:14,210801,15050
2024-12-19 08:54:14,210220,15121
2024-12-19 08:54:14,210713,15166
2024-12-19 08:54:14,212243,15186
2024-12-19 08:54:14,213419,15199
2024-12-19 08:54:14,213830,15227
2024-12-19 08:54:14,213482,15185
2024-12-19 08:54:14,212399,15203
2024-12-19 08:54:14,210971,15158
2024-12-19 08:54:14,210263,15258
2024-12-19 08:54:14,210512,15326
2024-12-19 08:54:14,211695,15344
2024-12-19 08:54:14,213063,15386
2024-12-19 08:54:14,213688,15323
2024-12-19 08:54:14,213456,15279
2024-12-19 08:54:14,212611,15288
2024-12-19 08:54:14,211533,15359
2024-12-19 08:54:14,210386,15422
2024-12-19 08:54:14,210183,15325
2024-12-19 08:54:14,210448,15328
2024-12-19 08:54:14,211646,15325
2024-12-19 08:54:14,213248,15302
2024-12-19 08:54:14,213908,15326
2024-12-19 08:54:14,213448,15289
2024-12-19 08:54:14,212309,15263
2024-12-19 08:54:14,211145,15280
2024-12-19 08:54:14,210223,15399
2024-12-19 08:54:14,210258,15437
2024-12-19 08:54:14,211134,15406
2024-12-19 08:54:14,212486,15479
2024-12-19 08:54:14,213401,15419
2024-12-19 08:54:14,213277,15378
2024-12-19 08:54:14,212749,15457
2024-12-19 08:54:14,211588,15461
2024-12-19 08:54:14,210123,15468
2024-12-19 08:54:14,209425,15406
2024-12-19 08:54:14,210476,15532
2024-12-19 08:54:14,212051,15592
2024-12-19 08:54:14,213081,15618
2024-12-19 08:54:14,213329,15627
2024-12-19 08:54:14,213147,15673
2024-12-19 08:54:14,212334,15741
2024-12-19 08:54:14,211337,15729
2024-12-19 08:54:14,210086,15791
2024-12-19 08:54:14,209936,15696
2024-12-19 08:54:14,210994,15771
2024-12-19 08:54:14,212504,15773
2024-12-19 08:54:14,213618,15844
2024-12-19 08:54:14,213773,15937
2024-12-19 08:54:14,213451,16013
2024-12-19 08:54:14,212591,16061
2024-12-19 08:54:14,211771,16205
2024-12-19 08:54:14,211395,16214
2024-12-19 08:54:14,211863,16209
2024-12-19 08:54:14,213308,16188
2024-12-19 08:54:14,214236,16239
2024-12-19 08:54:14,214528,16279
2024-12-19 08:54:14,214200,16259
2024-12-19 08:54:14,213547,16237
2024-12-19 08:54:14,212551,16257
2024-12-19 08:54:14,211524,16168
2024-12-19 08:54:14,211174,16191
2024-12-19 08:54:14,211823,16144
2024-12-19 08:54:14,213314,16093
2024-12-19 08:54:14,214281,15964
2024-12-19 08:54:14,214384,15981
2024-12-19 08:54:14,213773,16076
2024-12-19 08:54:14,212510,16134
2024-12-19 08:54:14,211388,16100
2024-12-19 08:54:14,210726,16085
2024-12-19 08:54:14,211104,16082
2024-12-19 08:54:14,212404,16020
2024-12-19 08:54:14,213756,16060
2024-12-19 08:54:14,214323,16088
2024-12-19 08:54:14,214191,16205
2024-12-19 08:54:14,213263,16381
2024-12-19 08:54:14,212136,16441
2024-12-19 08:54:14,211356,16536
2024-12-19 08:54:14,211333,16570
2024-12-19 08:54:14,211674,16499
2024-12-19 08:54:14,213051,16514
2024-12-19 08:54:14,214233,16450
2024-12-19 08:54:14,214561,16526
2024-12-19 08:54:14,214116,16504
2024-12-19 08:54:14,213082,16542
2024-12-19 08:54:14,211968,16551
2024-12-19 08:54:14,210965,16516
2024-12-19 08:54:14,211221,16503
2024-12-19 08:54:14,212398,16323
2024-12-19 08:54:14,213671,16257
2024-12-19 08:54:14,214722,16238
2024-12-19 08:54:14,214363,16284
2024-12-19 08:54:14,213253,16301
2024-12-19 08:54:14,212134,16258
2024-12-19 08:54:14,210916,16303
2024-12-19 08:54:14,210853,16347
2024-12-19 08:54:14,211772,16379
2024-12-19 08:54:14,213322,16298
2024-12-19 08:54:14,213901,16318
2024-12-19 08:54:14,214461,16323
2024-12-19 08:54:14,214202,16343
2024-12-19 08:54:14,213453,16408
2024-12-19 08:54:14,213078,16728
2024-12-19 08:54:14,213058,17068
2024-12-19 08:54:14,214348,17395
2024-12-19 08:54:14,216326,17541
2024-12-19 08:54:14,218929,17820
2024-12-19 08:54:14,222156,18223
2024-12-19 08:54:14,223809,18707
2024-12-19 08:54:14,223358,19027
2024-12-19 08:54:14,223727,19481
2024-12-19 08:54:14,222074,19839
2024-12-19 08:54:14,219359,19564
2024-12-19 08:54:14,215465,18368
2024-12-19 08:54:14,211756,16642
2024-12-19 08:54:14,210393,15525
2024-12-19 08:54:14,207825,14709
2024-12-19 08:54:14,204351,13600
2024-12-19 08:54:14,200666,13165
2024-12-19 08:54:14,194604,12394
2024-12-19 08:54:14,193519,12093
2024-12-19 08:54:14,194006,11664
2024-12-19 08:54:14,192966,10957
2024-12-19 08:54:14,194260,10443
2024-12-19 08:54:14,196698,10326
2024-12-19 08:54:14,200567,10466
2024-12-19 08:54:14,203295,10724
2024-12-19 08:54:14,204708,11057
2024-12-19 08:54:14,205766,11645
2024-12-19 08:54:14,207876,12478
2024-12-19 08:54:14,209213,13091
2024-12-19 08:54:14,210863,13589
2024-12-19 08:54:14,212652,14189
2024-12-19 08:54:14,213546,14656
2024-12-19 08:54:14,213768,15131
2024-12-19 08:54:14,212728,15443
2024-12-19 08:54:14,211379,15750
2024-12-19 08:54:14,210646,15986
2024-12-19 08:54:14,210568,16062
2024-12-19 08:54:14,211430,16203
2024-12-19 08:54:14,213353,16354
2024-12-19 08:54:14,214655,16385
2024-12-19 08:54:14,214654,16416
2024-12-19 08:54:14,214378,16544
2024-12-19 08:54:14,213428,16590
2024-12-19 08:54:14,212029,16597
2024-12-19 08:54:14,211384,16681
2024-12-19 08:54:14,211755,16684
2024-12-19 08:54:14,213163,16748
2024-12-19 08:54:14,214396,16641
2024-12-19 08:54:14,214896,16672
2024-12-19 08:54:14,214786,16744
2024-12-19 08:54:14,213851,16813
2024-12-19 08:54:14,212678,16682
2024-12-19 08:54:14,211678,16674
2024-12-19 08:54:14,211906,16623
2024-12-19 08:54:14,212965,16569
2024-12-19 08:54:14,214416,16539
2024-12-19 08:54:14,215069,16516
2024-12-19 08:54:14,215313,16556
2024-12-19 08:54:14,214856,16575
2024-12-19 08:54:14,213910,16644
2024-12-19 08:54:14,212689,16733
2024-12-19 08:54:14,212122,16697
2024-12-19 08:54:14,212447,16669
2024-12-19 08:54:14,213724,16658
2024-12-19 08:54:14,215114,16625
2024-12-19 08:54:14,215943,16638
2024-12-19 08:54:14,215737,16686
2024-12-19 08:54:14,214636,16663
2024-12-19 08:54:14,213753,16669
2024-12-19 08:54:14,212707,16714
2024-12-19 08:54:14,212943,16784
2024-12-19 08:54:14,213946,16768
2024-12-19 08:54:14,215203,16662
2024-12-19 08:54:14,216064,16583
2024-12-19 08:54:14,215921,16524
2024-12-19 08:54:14,215263,16569
2024-12-19 08:54:14,214919,16589
2024-12-19 08:54:14,214056,16595
2024-12-19 08:54:14,213241,16572
2024-12-19 08:54:14,213322,16652
2024-12-19 08:54:14,214311,16678
2024-12-19 08:54:14,215695,16666
2024-12-19 08:54:14,217165,16758
2024-12-19 08:54:14,217267,16797
2024-12-19 08:54:14,216173,16730
2024-12-19 08:54:14,215386,16839
2024-12-19 08:54:14,214216,16779
2024-12-19 08:54:14,213947,16774
2024-12-19 08:54:14,214612,16791
2024-12-19 08:54:14,215803,16773
2024-12-19 08:54:14,217336,16789
2024-12-19 08:54:14,217774,16849
2024-12-19 08:54:14,217350,16844
2024-12-19 08:54:14,216876,16948
2024-12-19 08:54:14,215984,16981
2024-12-19 08:54:14,215524,16977
2024-12-19 08:54:14,215565,17043
2024-12-19 08:54:14,216374,17055
2024-12-19 08:54:14,217376,17013
2024-12-19 08:54:14,218762,17095
2024-12-19 08:54:14,219295,17233
2024-12-19 08:54:14,218656,17244
2024-12-19 08:54:14,218334,17307
2024-12-19 08:54:14,217623,17180
2024-12-19 08:54:14,217339,17164
2024-12-19 08:54:14,217663,17166
2024-12-19 08:54:14,218216,17061
2024-12-19 08:54:14,219533,17122
2024-12-19 08:54:14,220242,17171
2024-12-19 08:54:14,219921,17191
2024-12-19 08:54:14,219123,17209
2024-12-19 08:54:14,218949,17241
2024-12-19 08:54:14,218818,17169
2024-12-19 08:54:14,218678,17068
2024-12-19 08:54:14,218954,17076
2024-12-19 08:54:14,219628,17051
2024-12-19 08:54:14,220191,17033
2024-12-19 08:54:14,220383,17001
2024-12-19 08:54:14,219800,16984
2024-12-19 08:54:14,219231,17038
2024-12-19 08:54:14,218929,17035
2024-12-19 08:54:14,218775,17078
2024-12-19 08:54:14,218541,17079
2024-12-19 08:54:14,218718,17050
2024-12-19 08:54:14,219389,17069
2024-12-19 08:54:14,219914,17046
2024-12-19 08:54:14,219647,16964
2024-12-19 08:54:14,218559,17026
2024-12-19 08:54:14,218373,17068
2024-12-19 08:54:14,217909,16938
2024-12-19 08:54:14,217754,16981
2024-12-19 08:54:14,217486,16858
2024-12-19 08:54:14,217456,16838
2024-12-19 08:54:14,217953,16769
2024-12-19 08:54:14,217798,16719
2024-12-19 08:54:14,216473,16656
2024-12-19 08:54:14,216251,16581
2024-12-19 08:54:14,215906,16577
2024-12-19 08:54:14,215903,16586
2024-12-19 08:54:14,215673,16559
2024-12-19 08:54:14,215268,16461
2024-12-19 08:54:14,215354,16449
2024-12-19 08:54:14,215565,16387
2024-12-19 08:54:14,214953,16384
2024-12-19 08:54:14,213809,16343
2024-12-19 08:54:14,213828,16340
2024-12-19 08:54:14,213742,16284
2024-12-19 08:54:14,213605,16270
2024-12-19 08:54:14,213534,16279
2024-12-19 08:54:14,213218,16230
2024-12-19 08:54:14,213761,16254
2024-12-19 08:54:14,213830,16382
2024-12-19 08:54:14,212814,16387
2024-12-19 08:54:14,212784,16475
2024-12-19 08:54:14,212828,16516
2024-12-19 08:54:14,212809,16477
2024-12-19 08:54:14,212821,16436
2024-12-19 08:54:14,212799,16433
2024-12-19 08:54:14,212733,16376
2024-12-19 08:54:14,213309,16358
2024-12-19 08:54:14,213254,16460
2024-12-19 08:54:14,212118,16436
2024-12-19 08:54:14,212156,16483
2024-12-19 08:54:14,212174,16415
2024-12-19 08:54:14,212369,16464
2024-12-19 08:54:14,212501,16482
2024-12-19 08:54:14,212263,16419
2024-12-19 08:54:14,213081,16380
2024-12-19 08:54:14,213141,16331
2024-12-19 08:54:14,212379,16316
2024-12-19 08:54:14,212073,16351
2024-12-19 08:54:14,212104,16298
2024-12-19 08:54:14,212329,16278
2024-12-19 08:54:14,212537,16198
2024-12-19 08:54:14,212496,16161
2024-12-19 08:54:14,212753,16166
2024-12-19 08:54:14,213074,16168
2024-12-19 08:54:14,213191,16196
2024-12-19 08:54:14,212129,16256
2024-12-19 08:54:14,212189,16302
2024-12-19 08:54:14,212053,16297
2024-12-19 08:54:14,212021,16262
2024-12-19 08:54:14,212108,16236
2024-12-19 08:54:14,212163,16206
2024-12-19 08:54:14,213090,16198
2024-12-19 08:54:14,213448,16255
2024-12-19 08:54:14,213109,16229
2024-12-19 08:54:14,212401,16268
2024-12-19 08:54:14,212439,16223
2024-12-19 08:54:14,212249,16231
2024-12-19 08:54:14,212132,16274
2024-12-19 08:54:14,212263,16244
2024-12-19 08:54:14,212983,16286
2024-12-19 08:54:14,213745,16244
2024-12-19 08:54:14,213830,16182
2024-12-19 08:54:14,212776,16184
2024-12-19 08:54:14,212902,16189
2024-12-19 08:54:14,212381,16144
2024-12-19 08:54:14,212017,16244
2024-12-19 08:54:14,211943,16246
2024-12-19 08:54:14,212186,16332
2024-12-19 08:54:14,213277,16361
2024-12-19 08:54:14,213724,16314
2024-12-19 08:54:14,213615,16320
2024-12-19 08:54:14,212902,16426
2024-12-19 08:54:14,212637,16466
2024-12-19 08:54:14,211981,16448
2024-12-19 08:54:14,211899,16420
2024-12-19 08:54:14,212267,16506
2024-12-19 08:54:14,212999,16575
2024-12-19 08:54:14,213975,16485
2024-12-19 08:54:14,213840,16383
2024-12-19 08:54:14,212798,16375
2024-12-19 08:54:14,212591,16401
2024-12-19 08:54:14,211971,16413
2024-12-19 08:54:14,211584,16558
2024-12-19 08:54:14,211679,16608
2024-12-19 08:54:14,212448,16675
2024-12-19 08:54:14,213739,16624
2024-12-19 08:54:14,214378,16613
2024-12-19 08:54:14,214274,16618
2024-12-19 08:54:14,213185,16639
2024-12-19 08:54:14,212623,16569
2024-12-19 08:54:14,211944,16596
2024-12-19 08:54:14,211676,16632
2024-12-19 08:54:14,212234,16587
2024-12-19 08:54:14,213311,16545
2024-12-19 08:54:14,214301,16448
2024-12-19 08:54:14,214291,16518
2024-12-19 08:54:14,213397,16505
2024-12-19 08:54:14,212871,16539
2024-12-19 08:54:14,211848,16498
2024-12-19 08:54:14,211444,16454
2024-12-19 08:54:14,211792,16428
2024-12-19 08:54:14,212943,16330
2024-12-19 08:54:14,214419,16226
2024-12-19 08:54:14,214548,16228
2024-12-19 08:54:14,214288,16176
2024-12-19 08:54:14,213094,16164
2024-12-19 08:54:14,212338,16230
2024-12-19 08:54:14,211405,16261
2024-12-19 08:54:14,211299,16279
2024-12-19 08:54:14,212006,16314
2024-12-19 08:54:14,213226,16266
2024-12-19 08:54:14,214299,16213
2024-12-19 08:54:14,214215,16194
2024-12-19 08:54:14,213288,16173
2024-12-19 08:54:14,212650,16228
2024-12-19 08:54:14,211674,16266
2024-12-19 08:54:14,211179,16284
2024-12-19 08:54:14,211603,16259
2024-12-19 08:54:14,212898,16214
2024-12-19 08:54:14,214219,16138
2024-12-19 08:54:14,214363,16076
2024-12-19 08:54:14,213844,16103
2024-12-19 08:54:14,212927,16133
2024-12-19 08:54:14,212540,16103
2024-12-19 08:54:14,211433,16134
2024-12-19 08:54:14,210873,16128
2024-12-19 08:54:14,211454,16118
2024-12-19 08:54:14,212862,16071
2024-12-19 08:54:14,213962,15957
2024-12-19 08:54:14,214015,15959
2024-12-19 08:54:14,213172,15941
2024-12-19 08:54:14,212322,15937
2024-12-19 08:54:14,211118,15909
2024-12-19 08:54:14,210604,15979
2024-12-19 08:54:14,211108,16028
2024-12-19 08:54:14,212305,15917
2024-12-19 08:54:14,213730,15899
2024-12-19 08:54:14,214270,15879
2024-12-19 08:54:14,213801,15827
2024-12-19 08:54:14,212856,15809
2024-12-19 08:54:14,211698,15835
2024-12-19 08:54:14,210678,15851
2024-12-19 08:54:14,210899,15990
2024-12-19 08:54:14,211488,16019
2024-12-19 08:54:14,212912,15998
2024-12-19 08:54:14,214381,15950
2024-12-19 08:54:14,214383,15886
2024-12-19 08:54:14,213563,15872
2024-12-19 08:54:14,212698,16018
2024-12-19 08:54:14,211463,15991
2024-12-19 08:54:14,210282,15895
2024-12-19 08:54:14,210691,15857
2024-12-19 08:54:14,211850,15901
2024-12-19 08:54:14,213249,15871
2024-12-19 08:54:14,213747,15869
2024-12-19 08:54:14,213469,15873
2024-12-19 08:54:14,212268,15919
2024-12-19 08:54:14,210899,15996
2024-12-19 08:54:14,209887,15999
2024-12-19 08:54:14,209959,16006
2024-12-19 08:54:14,210990,15988
2024-12-19 08:54:14,212499,15985
2024-12-19 08:54:14,213649,15993
2024-12-19 08:54:14,213676,16025
2024-12-19 08:54:14,213229,16076
2024-12-19 08:54:14,212218,16163
2024-12-19 08:54:14,211131,16150
2024-12-19 08:54:14,210132,16208
2024-12-19 08:54:14,210301,16225
2024-12-19 08:54:14,211574,16256
2024-12-19 08:54:14,213183,16198
2024-12-19 08:54:14,213786,16078
2024-12-19 08:54:14,213431,15929
2024-12-19 08:54:14,212728,15927
2024-12-19 08:54:14,212173,16013
2024-12-19 08:54:14,211259,16028
2024-12-19 08:54:14,211380,16085
2024-12-19 08:54:14,212156,16062
2024-12-19 08:54:14,213328,16000
2024-12-19 08:54:14,214383,15878
2024-12-19 08:54:14,214539,15948
2024-12-19 08:54:14,213489,15893
2024-12-19 08:54:14,212471,15929
2024-12-19 08:54:14,211873,15944
2024-12-19 08:54:14,210834,15924
2024-12-19 08:54:14,210808,15939
2024-12-19 08:54:14,212050,15872
2024-12-19 08:54:14,213364,15833
2024-12-19 08:54:14,214435,15788
2024-12-19 08:54:14,214201,15891
2024-12-19 08:54:14,213103,15942
2024-12-19 08:54:14,211929,15872
2024-12-19 08:54:14,210736,15894
2024-12-19 08:54:14,210320,15816
2024-12-19 08:54:14,210912,15728
2024-12-19 08:54:14,212614,15788
2024-12-19 08:54:14,213986,15818
2024-12-19 08:54:14,213976,15765
2024-12-19 08:54:14,213163,15711
2024-12-19 08:54:14,212016,15781
2024-12-19 08:54:14,211028,15828
2024-12-19 08:54:14,210509,15850
2024-12-19 08:54:14,211073,15895
2024-12-19 08:54:14,211658,15844
2024-12-19 08:54:14,213088,15808
2024-12-19 08:54:14,214031,15721
2024-12-19 08:54:14,214076,15781
2024-12-19 08:54:14,213364,15796
2024-12-19 08:54:14,212391,15848
2024-12-19 08:54:14,210998,15816
2024-12-19 08:54:14,210548,15833
2024-12-19 08:54:15,211148,15838
2024-12-19 08:54:15,212748,15838
2024-12-19 08:54:15,213758,15766
2024-12-19 08:54:15,213919,15734
2024-12-19 08:54:15,213450,15743
2024-12-19 08:54:15,212363,15790
2024-12-19 08:54:15,211171,15786
2024-12-19 08:54:15,210399,15756
2024-12-19 08:54:15,210736,15772
2024-12-19 08:54:15,212008,15731
2024-12-19 08:54:15,213324,15685
2024-12-19 08:54:15,213899,15676
2024-12-19 08:54:15,214105,15791
2024-12-19 08:54:15,213858,15890
2024-12-19 08:54:15,213132,15990
2024-12-19 08:54:15,212955,16170
2024-12-19 08:54:15,213259,16441
2024-12-19 08:54:15,214469,16631
2024-12-19 08:54:15,216829,16998
2024-12-19 08:54:15,219876,17431
2024-12-19 08:54:15,221981,17871
2024-12-19 08:54:15,221897,18169
2024-12-19 08:54:15,221394,18688
2024-12-19 08:54:15,220761,19113
2024-12-19 08:54:15,217811,19153
2024-12-19 08:54:15,214438,18092
2024-12-19 08:54:15,210823,16164
2024-12-19 08:54:15,209240,14893
2024-12-19 08:54:15,207151,13974
2024-12-19 08:54:15,204069,12894
2024-12-19 08:54:15,198909,11984
2024-12-19 08:54:15,196549,11607
2024-12-19 08:54:15,194681,11059
2024-12-19 08:54:15,195621,10868
2024-12-19 08:54:15,195098,10309
2024-12-19 08:54:15,196121,9743
2024-12-19 08:54:15,198354,9567
2024-12-19 08:54:15,201686,9608
2024-12-19 08:54:15,205195,10024
2024-12-19 08:54:15,206107,10289
2024-12-19 08:54:15,206723,10741
2024-12-19 08:54:15,207409,11448
2024-12-19 08:54:15,208882,12166
2024-12-19 08:54:15,210528,12811
2024-12-19 08:54:15,212225,13364
2024-12-19 08:54:15,213891,13990
2024-12-19 08:54:15,214519,14558
2024-12-19 08:54:15,213993,14971
2024-12-19 08:54:15,212774,15264
2024-12-19 08:54:15,211224,15488
2024-12-19 08:54:15,210980,15667
2024-12-19 08:54:15,211238,15735
2024-12-19 08:54:15,212724,15906
2024-12-19 08:54:15,214238,16005
2024-12-19 08:54:15,215111,16065
2024-12-19 08:54:15,214784,16083
2024-12-19 08:54:15,213918,16179
2024-12-19 08:54:15,212861,16176
2024-12-19 08:54:15,211646,16210
2024-12-19 08:54:15,211744,16241
2024-12-19 08:54:15,212583,16293
2024-12-19 08:54:15,214219,16346
2024-12-19 08:54:15,215489,16323
2024-12-19 08:54:15,215164,16228
2024-12-19 08:54:15,214584,16303
2024-12-19 08:54:15,213560,16378
2024-12-19 08:54:15,212351,16439
2024-12-19 08:54:15,211941,16511
2024-12-19 08:54:15,212589,16563
2024-12-19 08:54:15,213941,16579
2024-12-19 08:54:15,215252,16583
2024-12-19 08:54:15,215498,16589
2024-12-19 08:54:15,215345,16584
2024-12-19 08:54:15,214507,16632
2024-12-19 08:54:15,213489,16606
2024-12-19 08:54:15,212280,16684
2024-12-19 08:54:15,212201,16684
2024-12-19 08:54:15,212865,16686
2024-12-19 08:54:15,214541,16753
2024-12-19 08:54:15,215773,16789
2024-12-19 08:54:15,215808,16698
2024-12-19 08:54:15,215147,16768
2024-12-19 08:54:15,214118,16762
2024-12-19 08:54:15,212919,16753
2024-12-19 08:54:15,212369,16809
2024-12-19 08:54:15,212798,16829
2024-12-19 08:54:15,214266,16821
2024-12-19 08:54:15,215465,16831
2024-12-19 08:54:15,215899,16781
2024-12-19 08:54:15,215618,16872
2024-12-19 08:54:15,214838,16965
2024-12-19 08:54:15,214430,17018
2024-12-19 08:54:15,213184,16978
2024-12-19 08:54:15,212781,16954
2024-12-19 08:54:15,213404,17003
2024-12-19 08:54:15,214914,17038
2024-12-19 08:54:15,216284,16966
2024-12-19 08:54:15,216533,17007
2024-12-19 08:54:15,216174,17083
2024-12-19 08:54:15,215371,17096
2024-12-19 08:54:15,214323,17199
2024-12-19 08:54:15,213677,17195
2024-12-19 08:54:15,213841,17120
2024-12-19 08:54:15,215039,17086
2024-12-19 08:54:15,216435,17178
2024-12-19 08:54:15,217189,17191
2024-12-19 08:54:15,216946,17185
2024-12-19 08:54:15,216159,17269
2024-12-19 08:54:15,215333,17271
2024-12-19 08:54:15,214456,17332
2024-12-19 08:54:15,214403,17362
2024-12-19 08:54:15,214829,17364
2024-12-19 08:54:15,216433,17414
2024-12-19 08:54:15,217909,17451
2024-12-19 08:54:15,218455,17423
2024-12-19 08:54:15,218124,17437
2024-12-19 08:54:15,217116,17441
2024-12-19 08:54:15,215987,17498
2024-12-19 08:54:15,215451,17548
2024-12-19 08:54:15,215633,17581
2024-12-19 08:54:15,216723,17584
2024-12-19 08:54:15,218184,17611
2024-12-19 08:54:15,219293,17653
2024-12-19 08:54:15,219326,17619
2024-12-19 08:54:15,218443,17642
2024-12-19 08:54:15,217519,17646
2024-12-19 08:54:15,216649,17725
2024-12-19 08:54:15,216551,17720
2024-12-19 08:54:15,217164,17693
2024-12-19 08:54:15,218546,17562
2024-12-19 08:54:15,219574,17554
2024-12-19 08:54:15,219811,17544
2024-12-19 08:54:15,219506,17585
2024-12-19 08:54:15,218535,17660
2024-12-19 08:54:15,217627,17646
2024-12-19 08:54:15,216374,17692
2024-12-19 08:54:15,216513,17659
2024-12-19 08:54:15,217401,17612
2024-12-19 08:54:15,218854,17558
2024-12-19 08:54:15,219641,17487
2024-12-19 08:54:15,219277,17411
2024-12-19 08:54:15,218510,17409
2024-12-19 08:54:15,217507,17388
2024-12-19 08:54:15,216153,17387
2024-12-19 08:54:15,215560,17344
2024-12-19 08:54:15,215921,17204
2024-12-19 08:54:15,217299,17166
2024-12-19 08:54:15,218357,17101
2024-12-19 08:54:15,218407,17009
2024-12-19 08:54:15,217578,16891
2024-12-19 08:54:15,216215,16865
2024-12-19 08:54:15,215518,16848
2024-12-19 08:54:15,214189,16822
2024-12-19 08:54:15,213791,16775
2024-12-19 08:54:15,214456,16791
2024-12-19 08:54:15,215519,16718
2024-12-19 08:54:15,216419,16646
2024-12-19 08:54:15,216159,16551
2024-12-19 08:54:15,215444,16517
2024-12-19 08:54:15,214373,16541
2024-12-19 08:54:15,213074,16541
2024-12-19 08:54:15,212603,16574
2024-12-19 08:54:15,212721,16446
2024-12-19 08:54:15,213713,16348
2024-12-19 08:54:15,215011,16344
2024-12-19 08:54:15,215311,16356
2024-12-19 08:54:15,214774,16277
2024-12-19 08:54:15,213724,16253
2024-12-19 08:54:15,212511,16240
2024-12-19 08:54:15,211829,16401
2024-12-19 08:54:15,211858,16294
2024-12-19 08:54:15,212204,16243
2024-12-19 08:54:15,213571,16266
2024-12-19 08:54:15,214721,16141
2024-12-19 08:54:15,214548,16032
2024-12-19 08:54:15,214060,16046
2024-12-19 08:54:15,212892,16102
2024-12-19 08:54:15,212010,16189
2024-12-19 08:54:15,211189,16182
2024-12-19 08:54:15,211419,16173
2024-12-19 08:54:15,212730,16186
2024-12-19 08:54:15,213996,16188
2024-12-19 08:54:15,214465,16188
2024-12-19 08:54:15,214226,16218
2024-12-19 08:54:15,213415,16293
2024-12-19 08:54:15,212423,16310
2024-12-19 08:54:15,211691,16344
2024-12-19 08:54:15,211619,16354
2024-12-19 08:54:15,212474,16296
2024-12-19 08:54:15,213496,16268
2024-12-19 08:54:15,214306,16176
2024-12-19 08:54:15,214390,16232
2024-12-19 08:54:15,214071,16228
2024-12-19 08:54:15,213048,16271
2024-12-19 08:54:15,212144,16349
2024-12-19 08:54:15,211324,16394
2024-12-19 08:54:15,211494,16377
2024-12-19 08:54:15,212844,16398
2024-12-19 08:54:15,213989,16301
2024-12-19 08:54:15,214586,16110
2024-12-19 08:54:15,214352,15943
2024-12-19 08:54:15,213159,15797
2024-12-19 08:54:15,212305,15573
2024-12-19 08:54:15,211224,15322
2024-12-19 08:54:15,211151,15266
2024-12-19 08:54:15,212249,15296
2024-12-19 08:54:15,213406,15299
2024-12-19 08:54:15,214278,15216
2024-12-19 08:54:15,214316,15225
2024-12-19 08:54:15,213661,15266
2024-12-19 08:54:15,212668,15316
2024-12-19 08:54:15,212178,15325
2024-12-19 08:54:15,211141,15457
2024-12-19 08:54:15,211341,15478
2024-12-19 08:54:15,212391,15523
2024-12-19 08:54:15,213602,15494
2024-12-19 08:54:15,214284,15450
2024-12-19 08:54:15,214413,15570
2024-12-19 08:54:15,213511,15604
2024-12-19 08:54:15,212409,15614
2024-12-19 08:54:15,211182,15704
2024-12-19 08:54:15,210875,15708
2024-12-19 08:54:15,211805,15805
2024-12-19 08:54:15,213347,15838
2024-12-19 08:54:15,214329,15843
2024-12-19 08:54:15,214361,15772
2024-12-19 08:54:15,213747,15749
2024-12-19 08:54:15,212809,15805
2024-12-19 08:54:15,211515,15781
2024-12-19 08:54:15,210983,15826
2024-12-19 08:54:15,211381,15858
2024-12-19 08:54:15,211994,15876
2024-12-19 08:54:15,213353,15899
2024-12-19 08:54:15,214199,15769
2024-12-19 08:54:15,214136,15828
2024-12-19 08:54:15,213348,15752
2024-12-19 08:54:15,212319,15807
2024-12-19 08:54:15,211123,15795
2024-12-19 08:54:15,211043,15876
2024-12-19 08:54:15,211761,15977
2024-12-19 08:54:15,213204,15955
2024-12-19 08:54:15,214532,15998
2024-12-19 08:54:15,214743,15985
2024-12-19 08:54:15,214089,15909
2024-12-19 08:54:15,213045,15939
2024-12-19 08:54:15,211856,15981
2024-12-19 08:54:15,211230,16043
2024-12-19 08:54:15,211478,16039
2024-12-19 08:54:15,212671,16087
2024-12-19 08:54:15,214053,16087
2024-12-19 08:54:15,214637,16105
2024-12-19 08:54:15,214441,16039
2024-12-19 08:54:15,213889,16063
2024-12-19 08:54:15,212667,16036
2024-12-19 08:54:15,211541,16036
2024-12-19 08:54:15,210909,15909
2024-12-19 08:54:15,211427,15973
2024-12-19 08:54:15,212746,15894
2024-12-19 08:54:15,213981,15924
2024-12-19 08:54:15,214234,15884
2024-12-19 08:54:15,213789,15916
2024-12-19 08:54:15,212722,15953
2024-12-19 08:54:15,211576,15984
2024-12-19 08:54:15,210696,16084
2024-12-19 08:54:15,210988,16065
2024-12-19 08:54:15,212163,16043
2024-12-19 08:54:15,213548,16060
2024-12-19 08:54:15,214091,16018
2024-12-19 08:54:15,213901,16048
2024-12-19 08:54:15,212960,16031
2024-12-19 08:54:15,211825,15969
2024-12-19 08:54:15,211288,16034
2024-12-19 08:54:15,210653,16031
2024-12-19 08:54:15,211019,16119
2024-12-19 08:54:15,212273,16076
2024-12-19 08:54:15,213676,16084
2024-12-19 08:54:15,214127,16026
2024-12-19 08:54:15,213846,16042
2024-12-19 08:54:15,212820,16106
2024-12-19 08:54:15,211535,16088
2024-12-19 08:54:15,210388,16073
2024-12-19 08:54:15,210455,16081
2024-12-19 08:54:15,211587,16147
2024-12-19 08:54:15,212969,16136
2024-12-19 08:54:15,213871,16148
2024-12-19 08:54:15,213813,16094
2024-12-19 08:54:15,212999,16141
2024-12-19 08:54:15,211899,16085
2024-12-19 08:54:15,210804,16128
2024-12-19 08:54:15,210562,16181
2024-12-19 08:54:15,211004,16118
2024-12-19 08:54:15,211728,16158
2024-12-19 08:54:15,212947,16155
2024-12-19 08:54:15,213599,16163
2024-12-19 08:54:15,213393,16122
2024-12-19 08:54:15,212436,16138
2024-12-19 08:54:15,211340,16171
2024-12-19 08:54:15,210069,16204
2024-12-19 08:54:15,209710,16144
2024-12-19 08:54:15,210454,16058
2024-12-19 08:54:15,211826,16104
2024-12-19 08:54:15,212871,16038
2024-12-19 08:54:15,212869,16093
2024-12-19 08:54:15,212071,16171
2024-12-19 08:54:15,211178,16172
2024-12-19 08:54:15,210341,16313
2024-12-19 08:54:15,209773,16268
2024-12-19 08:54:15,210301,16274
2024-12-19 08:54:15,211633,16201
2024-12-19 08:54:15,212955,16238
2024-12-19 08:54:15,213334,16182
2024-12-19 08:54:15,213199,16164
2024-12-19 08:54:15,212256,16155
2024-12-19 08:54:15,211236,16150
2024-12-19 08:54:15,210424,16143
2024-12-19 08:54:15,210492,16164
2024-12-19 08:54:15,211619,16196
2024-12-19 08:54:15,213304,16191
2024-12-19 08:54:15,214208,16161
2024-12-19 08:54:15,214339,16100
2024-12-19 08:54:15,213934,16088
2024-12-19 08:54:15,212788,16129
2024-12-19 08:54:15,211634,16206
2024-12-19 08:54:15,210946,16193
2024-12-19 08:54:15,211323,16214
2024-12-19 08:54:15,212660,16178
2024-12-19 08:54:15,213766,16059
2024-12-19 08:54:15,214121,16008
2024-12-19 08:54:15,213803,16003
2024-12-19 08:54:15,212754,16000
2024-12-19 08:54:15,211612,16070
2024-12-19 08:54:15,210933,16100
2024-12-19 08:54:15,210383,16094
2024-12-19 08:54:15,210961,16043
2024-12-19 08:54:15,212399,16056
2024-12-19 08:54:15,213497,16039
2024-12-19 08:54:15,213623,15995
2024-12-19 08:54:15,213291,16073
2024-12-19 08:54:15,212248,16035
2024-12-19 08:54:15,211066,16053
2024-12-19 08:54:15,210331,16124
2024-12-19 08:54:15,210511,16046
2024-12-19 08:54:15,211853,16016
2024-12-19 08:54:15,213181,15983
2024-12-19 08:54:15,213899,15959
2024-12-19 08:54:15,213673,16006
2024-12-19 08:54:15,212622,15978
2024-12-19 08:54:15,211546,16007
2024-12-19 08:54:15,210348,16035
2024-12-19 08:54:15,210379,16044
2024-12-19 08:54:15,211476,16020
2024-12-19 08:54:15,212196,15991
2024-12-19 08:54:15,213331,15984
2024-12-19 08:54:15,213855,16015
2024-12-19 08:54:15,213624,16025
2024-12-19 08:54:15,212551,16083
2024-12-19 08:54:15,211478,16144
2024-12-19 08:54:15,210413,16114
2024-12-19 08:54:15,210634,16071
2024-12-19 08:54:15,211605,16019
2024-12-19 08:54:15,212820,15833
2024-12-19 08:54:15,213605,15682
2024-12-19 08:54:15,213480,15655
2024-12-19 08:54:15,212511,15729
2024-12-19 08:54:15,211691,15829
2024-12-19 08:54:15,210758,15943
2024-12-19 08:54:15,211387,16103
2024-12-19 08:54:15,213023,16374
2024-12-19 08:54:15,215226,16608
2024-12-19 08:54:15,216748,16779
2024-12-19 08:54:15,217943,17218
2024-12-19 08:54:15,218898,17479
2024-12-19 08:54:15,219419,18056
2024-12-19 08:54:15,218668,18378
2024-12-19 08:54:15,218145,18943
2024-12-19 08:54:15,218516,19312
2024-12-19 08:54:15,217695,19289
2024-12-19 08:54:15,215891,18051
2024-12-19 08:54:15,212686,15970
2024-12-19 08:54:15,209476,14466
2024-12-19 08:54:15,206209,13502
2024-12-19 08:54:15,203270,12444
2024-12-19 08:54:15,197870,11415
2024-12-19 08:54:15,194076,10616
2024-12-19 08:54:15,195978,10433
2024-12-19 08:54:15,198246,10013
2024-12-19 08:54:15,198763,9411
2024-12-19 08:54:15,199151,9075
2024-12-19 08:54:15,200429,9136
2024-12-19 08:54:15,202768,9634
2024-12-19 08:54:15,204286,9953
2024-12-19 08:54:15,204528,10120
2024-12-19 08:54:15,206008,10679
2024-12-19 08:54:15,208524,11417
2024-12-19 08:54:15,211204,12139
2024-12-19 08:54:15,212919,12840
2024-12-19 08:54:15,213044,13374
2024-12-19 08:54:15,212813,14033
2024-12-19 08:54:15,212176,14529
2024-12-19 08:54:15,210961,14926
2024-12-19 08:54:15,210369,15218
2024-12-19 08:54:15,210635,15402
2024-12-19 08:54:15,212090,15634
2024-12-19 08:54:15,213389,15770
2024-12-19 08:54:15,214139,15965
2024-12-19 08:54:15,213977,16039
2024-12-19 08:54:15,212943,16158
2024-12-19 08:54:15,211883,16216
2024-12-19 08:54:15,210846,16180
2024-12-19 08:54:15,211040,16230
2024-12-19 08:54:15,212439,16270
2024-12-19 08:54:15,213206,16274
2024-12-19 08:54:15,214264,16294
2024-12-19 08:54:15,214579,16284
2024-12-19 08:54:15,213921,16339
2024-12-19 08:54:15,212846,16442
2024-12-19 08:54:15,211790,16484
2024-12-19 08:54:15,211130,16553
2024-12-19 08:54:15,211414,16546
2024-12-19 08:54:15,212762,16583
2024-12-19 08:54:15,214099,16551
2024-12-19 08:54:15,214901,16623
2024-12-19 08:54:15,214486,16552
2024-12-19 08:54:15,213403,16551
2024-12-19 08:54:15,212411,16596
2024-12-19 08:54:15,211405,16676
2024-12-19 08:54:15,211601,16670
2024-12-19 08:54:15,212645,16729
2024-12-19 08:54:15,214130,16718
2024-12-19 08:54:15,215049,16714
2024-12-19 08:54:15,215028,16677
2024-12-19 08:54:15,214594,16697
2024-12-19 08:54:15,213381,16646
2024-12-19 08:54:15,212311,16711
2024-12-19 08:54:15,211465,16788
2024-12-19 08:54:15,211743,16798
2024-12-19 08:54:15,212944,16785
2024-12-19 08:54:15,214374,16773
2024-12-19 08:54:15,215211,16822
2024-12-19 08:54:15,214899,16848
2024-12-19 08:54:15,214059,16878
2024-12-19 08:54:15,213116,16980
2024-12-19 08:54:15,211928,17053
2024-12-19 08:54:15,211986,17104
2024-12-19 08:54:15,212770,17077
2024-12-19 08:54:15,214378,17111
2024-12-19 08:54:15,215562,17105
2024-12-19 08:54:15,215587,17057
2024-12-19 08:54:15,214939,17087
2024-12-19 08:54:15,213798,17132
2024-12-19 08:54:15,213379,17201
2024-12-19 08:54:15,212484,17294
2024-12-19 08:54:15,212644,17317
2024-12-19 08:54:15,213608,17251
2024-12-19 08:54:15,214988,17253
2024-12-19 08:54:15,216170,17264
2024-12-19 08:54:15,216249,17318
2024-12-19 08:54:15,215522,17305
2024-12-19 08:54:15,214521,17349
2024-12-19 08:54:15,213427,17376
2024-12-19 08:54:15,213146,17439
2024-12-19 08:54:15,214058,17484
2024-12-19 08:54:15,215625,17411
2024-12-19 08:54:15,216934,17383
2024-12-19 08:54:15,217121,17390
2024-12-19 08:54:15,216470,17411
2024-12-19 08:54:15,215364,17496
2024-12-19 08:54:15,214329,17584
2024-12-19 08:54:15,213964,17639
2024-12-19 08:54:15,214439,17666
2024-12-19 08:54:15,215231,17658
2024-12-19 08:54:15,216843,17599
2024-12-19 08:54:15,217953,17633
2024-12-19 08:54:15,218118,17599
2024-12-19 08:54:15,217459,17685
2024-12-19 08:54:15,216518,17708
2024-12-19 08:54:15,215248,17673
2024-12-19 08:54:15,214964,17781
2024-12-19 08:54:15,215476,17787
2024-12-19 08:54:15,217086,17794
2024-12-19 08:54:15,218336,17694
2024-12-19 08:54:15,218819,17708
2024-12-19 08:54:15,218324,17683
2024-12-19 08:54:15,217241,17670
2024-12-19 08:54:15,216078,17709
2024-12-19 08:54:15,215343,17691
2024-12-19 08:54:15,215521,17667
2024-12-19 08:54:15,216826,17674
2024-12-19 08:54:15,218044,17583
2024-12-19 08:54:15,218659,17518
2024-12-19 08:54:15,218567,17493
2024-12-19 08:54:15,218072,17518
2024-12-19 08:54:15,216754,17481
2024-12-19 08:54:15,215321,17473
2024-12-19 08:54:15,214836,17466
2024-12-19 08:54:15,215269,17471
2024-12-19 08:54:15,216491,17403
2024-12-19 08:54:15,217751,17345
2024-12-19 08:54:15,217908,17229
2024-12-19 08:54:15,217289,17162
2024-12-19 08:54:15,216079,17109
2024-12-19 08:54:15,214747,17114
2024-12-19 08:54:15,213499,17098
2024-12-19 08:54:15,213410,17079
2024-12-19 08:54:15,214278,17019
2024-12-19 08:54:15,215328,16870
2024-12-19 08:54:15,215908,16814
2024-12-19 08:54:15,215520,16804
2024-12-19 08:54:15,214383,16721
2024-12-19 08:54:15,213136,16699
2024-12-19 08:54:15,212361,16714
2024-12-19 08:54:15,211489,16704
2024-12-19 08:54:16,211684,16694
2024-12-19 08:54:16,212865,16646
2024-12-19 08:54:16,214065,16538
2024-12-19 08:54:16,214584,16503
2024-12-19 08:54:16,214017,16419
2024-12-19 08:54:16,213021,16528
2024-12-19 08:54:16,211793,16525
2024-12-19 08:54:16,210620,16609
2024-12-19 08:54:16,210531,16531
2024-12-19 08:54:16,211355,16469
2024-12-19 08:54:16,212613,16402
2024-12-19 08:54:16,213563,16349
2024-12-19 08:54:16,213472,16370
2024-12-19 08:54:16,212635,16358
2024-12-19 08:54:16,211379,16418
2024-12-19 08:54:16,210288,16461
2024-12-19 08:54:16,209907,16494
2024-12-19 08:54:16,210488,16479
2024-12-19 08:54:16,211271,16467
2024-12-19 08:54:16,212639,16408
2024-12-19 08:54:16,213436,16364
2024-12-19 08:54:16,213211,16383
2024-12-19 08:54:16,212171,16406
2024-12-19 08:54:16,211005,16396
2024-12-19 08:54:16,209850,16468
2024-12-19 08:54:16,209785,16469
2024-12-19 08:54:16,210566,16440
2024-12-19 08:54:16,212244,16489
2024-12-19 08:54:16,213437,16466
2024-12-19 08:54:16,213436,16408
2024-12-19 08:54:16,212646,16369
2024-12-19 08:54:16,211479,16343
2024-12-19 08:54:16,210124,16406
2024-12-19 08:54:16,209831,16428
2024-12-19 08:54:16,210435,16450
2024-12-19 08:54:16,211842,16462
2024-12-19 08:54:16,213019,16381
2024-12-19 08:54:16,213364,16349
2024-12-19 08:54:16,213254,16379
2024-12-19 08:54:16,212508,16419
2024-12-19 08:54:16,211437,16431
2024-12-19 08:54:16,210310,16491
2024-12-19 08:54:16,209974,16530
2024-12-19 08:54:16,210761,16479
2024-12-19 08:54:16,212246,16446
2024-12-19 08:54:16,213182,16351
2024-12-19 08:54:16,213493,16295
2024-12-19 08:54:16,212936,16309
2024-12-19 08:54:16,211808,16326
2024-12-19 08:54:16,210581,16395
2024-12-19 08:54:16,209836,16394
2024-12-19 08:54:16,210291,16401
2024-12-19 08:54:16,211746,16385
2024-12-19 08:54:16,213116,16394
2024-12-19 08:54:16,213540,16350
2024-12-19 08:54:16,213309,16362
2024-12-19 08:54:16,212171,16369
2024-12-19 08:54:16,210963,16349
2024-12-19 08:54:16,210333,16417
2024-12-19 08:54:16,209848,16436
2024-12-19 08:54:16,210398,16453
2024-12-19 08:54:16,211843,16418
2024-12-19 08:54:16,213114,16416
2024-12-19 08:54:16,213406,16370
2024-12-19 08:54:16,213020,16400
2024-12-19 08:54:16,211823,16392
2024-12-19 08:54:16,210587,16323
2024-12-19 08:54:16,209842,16350
2024-12-19 08:54:16,210020,16378
2024-12-19 08:54:16,211287,16369
2024-12-19 08:54:16,212642,16318
2024-12-19 08:54:16,213393,16228
2024-12-19 08:54:16,213048,16234
2024-12-19 08:54:16,212181,16241
2024-12-19 08:54:16,211286,16295
2024-12-19 08:54:16,210054,16264
2024-12-19 08:54:16,209858,16253
2024-12-19 08:54:16,210947,16252
2024-12-19 08:54:16,211926,16344
2024-12-19 08:54:16,213143,16291
2024-12-19 08:54:16,213628,16235
2024-12-19 08:54:16,213146,16215
2024-12-19 08:54:16,212098,16269
2024-12-19 08:54:16,210988,16263
2024-12-19 08:54:16,209879,16258
2024-12-19 08:54:16,210144,16233
2024-12-19 08:54:16,211262,16256
2024-12-19 08:54:16,212640,16221
2024-12-19 08:54:16,213623,16231
2024-12-19 08:54:16,213477,16246
2024-12-19 08:54:16,212414,16190
2024-12-19 08:54:16,211179,16126
2024-12-19 08:54:16,210043,16233
2024-12-19 08:54:16,209753,16215
2024-12-19 08:54:16,210441,16219
2024-12-19 08:54:16,212026,16213
2024-12-19 08:54:16,213247,16223
2024-12-19 08:54:16,213587,16249
2024-12-19 08:54:16,213216,16190
2024-12-19 08:54:16,212134,16158
2024-12-19 08:54:16,211086,16231
2024-12-19 08:54:16,209923,16235
2024-12-19 08:54:16,209904,16244
2024-12-19 08:54:16,210714,16246
2024-12-19 08:54:16,212143,16187
2024-12-19 08:54:16,213280,16139
2024-12-19 08:54:16,213129,16149
2024-12-19 08:54:16,212536,16153
2024-12-19 08:54:16,211416,16256
2024-12-19 08:54:16,210063,16181
2024-12-19 08:54:16,209638,16128
2024-12-19 08:54:16,210228,16176
2024-12-19 08:54:16,211628,16102
2024-12-19 08:54:16,212883,16128
2024-12-19 08:54:16,213179,16086
2024-12-19 08:54:16,212762,16121
2024-12-19 08:54:16,211701,16136
2024-12-19 08:54:16,210468,16092
2024-12-19 08:54:16,209738,16095
2024-12-19 08:54:16,209564,16121
2024-12-19 08:54:16,210606,16174
2024-12-19 08:54:16,212051,16140
2024-12-19 08:54:16,213238,16089
2024-12-19 08:54:16,213393,16127
2024-12-19 08:54:16,212594,16106
2024-12-19 08:54:16,211364,16094
2024-12-19 08:54:16,210185,16102
2024-12-19 08:54:16,209545,16143
2024-12-19 08:54:16,209913,16089
2024-12-19 08:54:16,211381,16041
2024-12-19 08:54:16,212679,16013
2024-12-19 08:54:16,213157,16021
2024-12-19 08:54:16,212816,16008
2024-12-19 08:54:16,211770,16051
2024-12-19 08:54:16,210605,16049
2024-12-19 08:54:16,209537,16096
2024-12-19 08:54:16,209676,16084
2024-12-19 08:54:16,210734,16044
2024-12-19 08:54:16,211567,16012
2024-12-19 08:54:16,212619,15924
2024-12-19 08:54:16,212863,16003
2024-12-19 08:54:16,212343,15956
2024-12-19 08:54:16,211156,15992
2024-12-19 08:54:16,209825,16069
2024-12-19 08:54:16,208959,16024
2024-12-19 08:54:16,209229,16091
2024-12-19 08:54:16,210432,15989
2024-12-19 08:54:16,211859,15994
2024-12-19 08:54:16,212480,15963
2024-12-19 08:54:16,211993,15993
2024-12-19 08:54:16,211095,16101
2024-12-19 08:54:16,210023,16141
2024-12-19 08:54:16,208953,16125
2024-12-19 08:54:16,208957,16131
2024-12-19 08:54:16,209854,16063
2024-12-19 08:54:16,211288,16064
2024-12-19 08:54:16,212328,16006
2024-12-19 08:54:16,212371,15973
2024-12-19 08:54:16,212157,15914
2024-12-19 08:54:16,211134,15889
2024-12-19 08:54:16,210524,15894
2024-12-19 08:54:16,209617,15908
2024-12-19 08:54:16,209994,15944
2024-12-19 08:54:16,211586,16002
2024-12-19 08:54:16,212905,15898
2024-12-19 08:54:16,213486,15788
2024-12-19 08:54:16,213279,15776
2024-12-19 08:54:16,212271,15861
2024-12-19 08:54:16,211106,15844
2024-12-19 08:54:16,209868,15864
2024-12-19 08:54:16,209831,15943
2024-12-19 08:54:16,210693,15914
2024-12-19 08:54:16,212109,15838
2024-12-19 08:54:16,213069,15699
2024-12-19 08:54:16,212993,15673
2024-12-19 08:54:16,212543,15726
2024-12-19 08:54:16,211341,15731
2024-12-19 08:54:16,210076,15694
2024-12-19 08:54:16,209581,15727
2024-12-19 08:54:16,209566,15797
2024-12-19 08:54:16,210537,15779
2024-12-19 08:54:16,211977,15736
2024-12-19 08:54:16,213077,15714
2024-12-19 08:54:16,212948,15698
2024-12-19 08:54:16,212173,15678
2024-12-19 08:54:16,210880,15673
2024-12-19 08:54:16,209723,15663
2024-12-19 08:54:16,209463,15644
2024-12-19 08:54:16,210078,15646
2024-12-19 08:54:16,211553,15591
2024-12-19 08:54:16,212890,15598
2024-12-19 08:54:16,212958,15520
2024-12-19 08:54:16,212322,15464
2024-12-19 08:54:16,211205,15533
2024-12-19 08:54:16,210114,15593
2024-12-19 08:54:16,209468,15558
2024-12-19 08:54:16,209770,15567
2024-12-19 08:54:16,211113,15583
2024-12-19 08:54:16,211840,15534
2024-12-19 08:54:16,212858,15559
2024-12-19 08:54:16,212898,15513
2024-12-19 08:54:16,212131,15476
2024-12-19 08:54:16,211074,15566
2024-12-19 08:54:16,209870,15594
2024-12-19 08:54:16,209381,15650
2024-12-19 08:54:16,209956,15629
2024-12-19 08:54:16,211311,15625
2024-12-19 08:54:16,212729,15612
2024-12-19 08:54:16,213111,15583
2024-12-19 08:54:16,212661,15641
2024-12-19 08:54:16,211519,15676
2024-12-19 08:54:16,210596,15724
2024-12-19 08:54:16,209943,15872
2024-12-19 08:54:16,211031,16074
2024-12-19 08:54:16,213354,16390
2024-12-19 08:54:16,215403,16593
2024-12-19 08:54:16,217211,16928
2024-12-19 08:54:16,218958,17480
2024-12-19 08:54:16,219437,17754
2024-12-19 08:54:16,218920,18106
2024-12-19 08:54:16,218238,18551
2024-12-19 08:54:16,217679,18848
2024-12-19 08:54:16,216376,18813
2024-12-19 08:54:16,213991,17571
2024-12-19 08:54:16,211214,15601
2024-12-19 08:54:16,208181,13998
2024-12-19 08:54:16,206306,13179
2024-12-19 08:54:16,203817,12039
2024-12-19 08:54:16,198675,11020
2024-12-19 08:54:16,193420,10214
2024-12-19 08:54:16,193330,9961
2024-12-19 08:54:16,195412,9550
2024-12-19 08:54:16,196277,9096
2024-12-19 08:54:16,197619,8784
2024-12-19 08:54:16,198539,8745
2024-12-19 08:54:16,201156,9223
2024-12-19 08:54:16,202843,9543
2024-12-19 08:54:16,203989,10098
2024-12-19 08:54:16,204705,10456
2024-12-19 08:54:16,206789,11206
2024-12-19 08:54:16,208903,11935
2024-12-19 08:54:16,210504,12493
2024-12-19 08:54:16,211366,13097
2024-12-19 08:54:16,211828,13774
2024-12-19 08:54:16,211525,14338
2024-12-19 08:54:16,210265,14668
2024-12-19 08:54:16,208769,14869
2024-12-19 08:54:16,208864,15078
2024-12-19 08:54:16,209982,15304
2024-12-19 08:54:16,211526,15419
2024-12-19 08:54:16,212779,15610
2024-12-19 08:54:16,212809,15663
2024-12-19 08:54:16,212220,15715
2024-12-19 08:54:16,211197,15735
2024-12-19 08:54:16,210095,15859
2024-12-19 08:54:16,209662,15848
2024-12-19 08:54:16,210450,15891
2024-12-19 08:54:16,212069,15901
2024-12-19 08:54:16,212768,15913
2024-12-19 08:54:16,213768,15960
2024-12-19 08:54:16,213593,16049
2024-12-19 08:54:16,212559,16051
2024-12-19 08:54:16,211428,16051
2024-12-19 08:54:16,210369,16133
2024-12-19 08:54:16,210233,16189
2024-12-19 08:54:16,211093,16186
2024-12-19 08:54:16,212559,16264
2024-12-19 08:54:16,213781,16232
2024-12-19 08:54:16,213798,16233
2024-12-19 08:54:16,213213,16318
2024-12-19 08:54:16,212156,16318
2024-12-19 08:54:16,210934,16335
2024-12-19 08:54:16,210317,16381
2024-12-19 08:54:16,210830,16363
2024-12-19 08:54:16,212336,16439
2024-12-19 08:54:16,213478,16364
2024-12-19 08:54:16,213921,16358
2024-12-19 08:54:16,213653,16421
2024-12-19 08:54:16,213071,16404
2024-12-19 08:54:16,212138,16467
2024-12-19 08:54:16,211086,16589
2024-12-19 08:54:16,210826,16647
2024-12-19 08:54:16,211382,16623
2024-12-19 08:54:16,212762,16578
2024-12-19 08:54:16,213928,16545
2024-12-19 08:54:16,214395,16562
2024-12-19 08:54:16,213844,16604
2024-12-19 08:54:16,212803,16581
2024-12-19 08:54:16,211518,16697
2024-12-19 08:54:16,210880,16677
2024-12-19 08:54:16,211162,16763
2024-12-19 08:54:16,212699,16798
2024-12-19 08:54:16,214096,16803
2024-12-19 08:54:16,214705,16827
2024-12-19 08:54:16,214442,16788
2024-12-19 08:54:16,213494,16833
2024-12-19 08:54:16,212543,16891
2024-12-19 08:54:16,211531,16894
2024-12-19 08:54:16,211433,16911
2024-12-19 08:54:16,212052,16939
2024-12-19 08:54:16,213671,16967
2024-12-19 08:54:16,215013,16977
2024-12-19 08:54:16,215520,16978
2024-12-19 08:54:16,215088,17001
2024-12-19 08:54:16,214041,17001
2024-12-19 08:54:16,213066,17000
2024-12-19 08:54:16,212394,17107
2024-12-19 08:54:16,212670,17168
2024-12-19 08:54:16,213971,17096
2024-12-19 08:54:16,215359,17126
2024-12-19 08:54:16,216496,17215
2024-12-19 08:54:16,216493,17220
2024-12-19 08:54:16,215530,17251
2024-12-19 08:54:16,214644,17237
2024-12-19 08:54:16,213573,17336
2024-12-19 08:54:16,213542,17369
2024-12-19 08:54:16,214648,17458
2024-12-19 08:54:16,215494,17391
2024-12-19 08:54:16,216964,17394
2024-12-19 08:54:16,217538,17346
2024-12-19 08:54:16,217322,17373
2024-12-19 08:54:16,216479,17474
2024-12-19 08:54:16,215436,17448
2024-12-19 08:54:16,214415,17448
2024-12-19 08:54:16,214475,17471
2024-12-19 08:54:16,215583,17482
2024-12-19 08:54:16,217078,17510
2024-12-19 08:54:16,218005,17459
2024-12-19 08:54:16,218096,17452
2024-12-19 08:54:16,217270,17367
2024-12-19 08:54:16,216373,17470
2024-12-19 08:54:16,215268,17542
2024-12-19 08:54:16,214736,17481
2024-12-19 08:54:16,215511,17528
2024-12-19 08:54:16,217014,17490
2024-12-19 08:54:16,218164,17457
2024-12-19 08:54:16,218256,17412
2024-12-19 08:54:16,218023,17420
2024-12-19 08:54:16,216792,17383
2024-12-19 08:54:16,215517,17273
2024-12-19 08:54:16,214301,17330
2024-12-19 08:54:16,214059,17334
2024-12-19 08:54:16,214793,17310
2024-12-19 08:54:16,216028,17123
2024-12-19 08:54:16,216906,17116
2024-12-19 08:54:16,216583,16948
2024-12-19 08:54:16,215482,16934
2024-12-19 08:54:16,214259,16894
2024-12-19 08:54:16,212751,16887
2024-12-19 08:54:16,212144,16833
2024-12-19 08:54:16,212588,16826
2024-12-19 08:54:16,213768,16764
2024-12-19 08:54:16,214673,16666
2024-12-19 08:54:16,214725,16556
2024-12-19 08:54:16,213802,16492
2024-12-19 08:54:16,212433,16416
2024-12-19 08:54:16,211201,16456
2024-12-19 08:54:16,210539,16451
2024-12-19 08:54:16,210326,16443
2024-12-19 08:54:16,210764,16333
2024-12-19 08:54:16,212154,16329
2024-12-19 08:54:16,213051,16288
2024-12-19 08:54:16,213043,16261
2024-12-19 08:54:16,212303,16219
2024-12-19 08:54:16,211001,16212
2024-12-19 08:54:16,209638,16151
2024-12-19 08:54:16,208856,16182
2024-12-19 08:54:16,209229,16220
2024-12-19 08:54:16,210787,16186
2024-12-19 08:54:16,212099,16135
2024-12-19 08:54:16,212363,16080
2024-12-19 08:54:16,211990,16064
2024-12-19 08:54:16,210989,16074
2024-12-19 08:54:16,209777,16054
2024-12-19 08:54:16,208768,16034
2024-12-19 08:54:16,208973,16113
2024-12-19 08:54:16,209970,16071
2024-12-19 08:54:16,210796,16074
2024-12-19 08:54:16,211944,16030
2024-12-19 08:54:16,212119,15989
2024-12-19 08:54:16,211863,16019
2024-12-19 08:54:16,210687,16013
2024-12-19 08:54:16,209443,16039
2024-12-19 08:54:16,208635,16014
2024-12-19 08:54:16,209039,16089
2024-12-19 08:54:16,210274,16098
2024-12-19 08:54:16,211524,16034
2024-12-19 08:54:16,212151,15942
2024-12-19 08:54:16,212001,16019
2024-12-19 08:54:16,211022,16031
2024-12-19 08:54:16,209977,16044
2024-12-19 08:54:16,208855,16074
2024-12-19 08:54:16,208560,16021
2024-12-19 08:54:16,209533,16074
2024-12-19 08:54:16,211162,16058
2024-12-19 08:54:16,212228,16089
2024-12-19 08:54:16,212179,15979
2024-12-19 08:54:16,211964,16050
2024-12-19 08:54:16,211029,16023
2024-12-19 08:54:16,209919,16109
2024-12-19 08:54:16,208918,16093
2024-12-19 08:54:16,208894,16053
2024-12-19 08:54:16,210121,16109
2024-12-19 08:54:16,211401,16042
2024-12-19 08:54:16,212234,15963
2024-12-19 08:54:16,212128,15999
2024-12-19 08:54:16,211242,16002
2024-12-19 08:54:16,210138,16031
2024-12-19 08:54:16,208903,16029
2024-12-19 08:54:16,208945,16060
2024-12-19 08:54:16,209654,15984
2024-12-19 08:54:16,211096,16014
2024-12-19 08:54:16,212145,15978
2024-12-19 08:54:16,212354,15982
2024-12-19 08:54:16,211666,15990
2024-12-19 08:54:16,210736,16019
2024-12-19 08:54:16,209389,16105
2024-12-19 08:54:16,208859,16080
2024-12-19 08:54:16,208834,16001
2024-12-19 08:54:16,209973,16071
2024-12-19 08:54:16,211301,15997
2024-12-19 08:54:16,212241,15965
2024-12-19 08:54:16,212187,15930
2024-12-19 08:54:16,211363,15910
2024-12-19 08:54:16,210382,15997
2024-12-19 08:54:16,209164,15982
2024-12-19 08:54:16,208789,16026
2024-12-19 08:54:16,209481,16005
2024-12-19 08:54:16,210989,15926
2024-12-19 08:54:16,211949,15876
2024-12-19 08:54:16,212315,15868
2024-12-19 08:54:16,211857,15891
2024-12-19 08:54:16,210732,15914
2024-12-19 08:54:16,209710,15973
2024-12-19 08:54:16,208918,15953
2024-12-19 08:54:16,209219,15911
2024-12-19 08:54:16,210611,15903
2024-12-19 08:54:16,211381,15854
2024-12-19 08:54:16,212337,15850
2024-12-19 08:54:16,212531,15847
2024-12-19 08:54:16,211800,15864
2024-12-19 08:54:16,210476,15844
2024-12-19 08:54:16,209307,15909
2024-12-19 08:54:16,208622,15902
2024-12-19 08:54:16,209180,15894
2024-12-19 08:54:16,210646,15856
2024-12-19 08:54:16,211882,15808
2024-12-19 08:54:16,212286,15799
2024-12-19 08:54:16,211865,15803
2024-12-19 08:54:16,210766,15789
2024-12-19 08:54:16,209737,15850
2024-12-19 08:54:16,208834,15813
2024-12-19 08:54:16,209064,15829
2024-12-19 08:54:16,210388,15933
2024-12-19 08:54:16,211595,15826
2024-12-19 08:54:16,212337,15806
2024-12-19 08:54:16,212167,15837
2024-12-19 08:54:16,211854,15759
2024-12-19 08:54:16,210638,15806
2024-12-19 08:54:16,209363,15790
2024-12-19 08:54:16,208654,15749
2024-12-19 08:54:16,208946,15796
2024-12-19 08:54:16,210424,15866
2024-12-19 08:54:16,211519,15771
2024-12-19 08:54:16,212202,15760
2024-12-19 08:54:16,211831,15710
2024-12-19 08:54:16,210861,15743
2024-12-19 08:54:16,209781,15781
2024-12-19 08:54:16,208699,15731
2024-12-19 08:54:16,208792,15764
2024-12-19 08:54:16,209896,15722
2024-12-19 08:54:16,211450,15729
2024-12-19 08:54:16,212117,15663
2024-12-19 08:54:16,211899,15625
2024-12-19 08:54:16,211165,15676
2024-12-19 08:54:16,210034,15646
2024-12-19 08:54:16,208949,15704
2024-12-19 08:54:16,208777,15758
2024-12-19 08:54:16,208996,15724
2024-12-19 08:54:16,210303,15709
2024-12-19 08:54:16,211601,15691
2024-12-19 08:54:16,212144,15613
2024-12-19 08:54:16,211766,15558
2024-12-19 08:54:16,210770,15575
2024-12-19 08:54:16,209696,15580
2024-12-19 08:54:16,208548,15591
2024-12-19 08:54:16,208469,15599
2024-12-19 08:54:16,209418,15556
2024-12-19 08:54:16,210772,15474
2024-12-19 08:54:16,211852,15524
2024-12-19 08:54:16,211896,15543
2024-12-19 08:54:16,211154,15496
2024-12-19 08:54:16,209985,15578
2024-12-19 08:54:16,208764,15594
2024-12-19 08:54:16,208396,15603
2024-12-19 08:54:16,208969,15618
2024-12-19 08:54:16,210504,15588
2024-12-19 08:54:16,211048,15506
2024-12-19 08:54:16,211843,15503
2024-12-19 08:54:16,211889,15478
2024-12-19 08:54:16,211052,15530
2024-12-19 08:54:16,209875,15510
2024-12-19 08:54:16,208706,15595
2024-12-19 08:54:16,208618,15608
2024-12-19 08:54:16,209260,15593
2024-12-19 08:54:16,210671,15532
2024-12-19 08:54:16,211624,15484
2024-12-19 08:54:16,211638,15462
2024-12-19 08:54:16,211036,15449
2024-12-19 08:54:16,210007,15541
2024-12-19 08:54:16,208875,15487
2024-12-19 08:54:16,208393,15604
2024-12-19 08:54:17,208776,15613
2024-12-19 08:54:17,210086,15624
2024-12-19 08:54:17,211186,15560
2024-12-19 08:54:17,211619,15523
2024-12-19 08:54:17,211348,15545
2024-12-19 08:54:17,210718,15499
2024-12-19 08:54:17,209655,15552
2024-12-19 08:54:17,208179,15582
2024-12-19 08:54:17,207557,15540
2024-12-19 08:54:17,208261,15597
2024-12-19 08:54:17,209703,15565
2024-12-19 08:54:17,210835,15566
2024-12-19 08:54:17,211244,15618
2024-12-19 08:54:17,210954,15716
2024-12-19 08:54:17,209789,15669
2024-12-19 08:54:17,208796,15688
2024-12-19 08:54:17,207958,15761
2024-12-19 08:54:17,208153,15801
2024-12-19 08:54:17,209528,15774
2024-12-19 08:54:17,210898,15788
2024-12-19 08:54:17,211656,15653
2024-12-19 08:54:17,211205,15558
2024-12-19 08:54:17,210604,15511
2024-12-19 08:54:17,209678,15536
2024-12-19 08:54:17,208666,15558
2024-12-19 08:54:17,208779,15593
2024-12-19 08:54:17,209496,15634
2024-12-19 08:54:17,210851,15553
2024-12-19 08:54:17,211801,15488
2024-12-19 08:54:17,212237,15425
2024-12-19 08:54:17,212145,15453
2024-12-19 08:54:17,211112,15516
2024-12-19 08:54:17,209864,15530
2024-12-19 08:54:17,208885,15551
2024-12-19 08:54:17,208963,15518
2024-12-19 08:54:17,210019,15486
2024-12-19 08:54:17,211313,15403
2024-12-19 08:54:17,212115,15319
2024-12-19 08:54:17,211966,15317
2024-12-19 08:54:17,210954,15356
2024-12-19 08:54:17,209844,15415
2024-12-19 08:54:17,208501,15396
2024-12-19 08:54:17,208454,15386
2024-12-19 08:54:17,209142,15370
2024-12-19 08:54:17,210609,15415
2024-12-19 08:54:17,211167,15378
2024-12-19 08:54:17,211654,15261
2024-12-19 08:54:17,211471,15220
2024-12-19 08:54:17,210610,15283
2024-12-19 08:54:17,209555,15264
2024-12-19 08:54:17,208611,15351
2024-12-19 08:54:17,208586,15363
2024-12-19 08:54:17,209611,15336
2024-12-19 08:54:17,211154,15299
2024-12-19 08:54:17,212089,15340
2024-12-19 08:54:17,211736,15259
2024-12-19 08:54:17,211047,15273
2024-12-19 08:54:17,209861,15276
2024-12-19 08:54:17,208594,15359
2024-12-19 08:54:17,208323,15319
2024-12-19 08:54:17,209118,15353
2024-12-19 08:54:17,210426,15268
2024-12-19 08:54:17,211593,15256
2024-12-19 08:54:17,211814,15249
2024-12-19 08:54:17,211365,15251
2024-12-19 08:54:17,210872,15286
2024-12-19 08:54:17,209826,15299
2024-12-19 08:54:17,208573,15357
2024-12-19 08:54:17,208564,15316
2024-12-19 08:54:17,209398,15424
2024-12-19 08:54:17,210766,15315
2024-12-19 08:54:17,211770,15255
2024-12-19 08:54:17,211648,15257
2024-12-19 08:54:17,210999,15313
2024-12-19 08:54:17,210046,15330
2024-12-19 08:54:17,209054,15544
2024-12-19 08:54:17,209361,15906
2024-12-19 08:54:17,210998,16260
2024-12-19 08:54:17,213316,16588
2024-12-19 08:54:17,215355,16930
2024-12-19 08:54:17,217578,17436
2024-12-19 08:54:17,218778,17974
2024-12-19 08:54:17,218371,18339
2024-12-19 08:54:17,218374,18673
2024-12-19 08:54:17,216839,19136
2024-12-19 08:54:17,216179,19149
2024-12-19 08:54:17,212852,18108
2024-12-19 08:54:17,210530,16416
2024-12-19 08:54:17,206756,14474
2024-12-19 08:54:17,205146,13569
2024-12-19 08:54:17,203895,12643
2024-12-19 08:54:17,200114,11551
2024-12-19 08:54:17,193418,10573
2024-12-19 08:54:17,190616,10033
2024-12-19 08:54:17,192265,9776
2024-12-19 08:54:17,192809,9202
2024-12-19 08:54:17,195037,9043
2024-12-19 08:54:17,196807,9022
2024-12-19 08:54:17,199547,9361
2024-12-19 08:54:17,201681,9793
2024-12-19 08:54:17,202973,10336
2024-12-19 08:54:17,204039,11000
2024-12-19 08:54:17,205529,11801
2024-12-19 08:54:17,207301,12499
2024-12-19 08:54:17,209086,13176
2024-12-19 08:54:17,209826,13470
2024-12-19 08:54:17,210908,14108
2024-12-19 08:54:17,211200,14604
2024-12-19 08:54:17,209975,14964
2024-12-19 08:54:17,208853,15278
2024-12-19 08:54:17,208108,15435
2024-12-19 08:54:17,208454,15683
2024-12-19 08:54:17,209741,15799
2024-12-19 08:54:17,211309,15911
2024-12-19 08:54:17,212342,15964
2024-12-19 08:54:17,212150,16029
2024-12-19 08:54:17,211243,15990
2024-12-19 08:54:17,210402,16059
2024-12-19 08:54:17,209236,16058
2024-12-19 08:54:17,209089,16114
2024-12-19 08:54:17,209774,16263
2024-12-19 08:54:17,211016,16258
2024-12-19 08:54:17,212359,16373
2024-12-19 08:54:17,212417,16441
2024-12-19 08:54:17,211905,16541
2024-12-19 08:54:17,211487,16673
2024-12-19 08:54:17,210669,16692
2024-12-19 08:54:17,209632,16758
2024-12-19 08:54:17,209385,16716
2024-12-19 08:54:17,210072,16754
